Time1,ECG,Time2,PPG
0.007,110,0.156,-477
0.014,101,0.161,-603
0.022,94,0.167,-644
0.03,87,0.173,-895
0.038,82,0.179,-832
0.045,39,0.184,-1001
0.053,2,0.19,-993
0.061,32,0.196,-1168
0.068,85,0.201,-1187
0.076,94,0.207,-1025
0.084,-2,0.213,-1071
0.091,-138,0.218,-1011
0.099,-152,0.224,-950
0.107,-76,0.23,-766
0.114,-36,0.235,-708
0.122,-18,0.241,-798
0.13,4,0.247,-576
0.138,9,0.252,-558
0.145,16,0.258,-357
0.153,39,0.264,-197
0.161,34,0.269,-167
0.168,0,0.275,34
0.176,-9,0.281,111
0.184,-6,0.286,96
0.191,-9,0.292,331
0.199,-2,0.298,405
0.207,25,0.304,623
0.214,29,0.309,603
0.222,-18,0.315,655
0.23,-50,0.321,669
0.238,-32,0.326,803
0.245,-16,0.332,890
0.253,-4,0.338,806
0.261,9,0.343,964
0.268,13,0.349,915
0.276,20,0.355,1085
0.284,9,0.36,1134
0.291,-27,0.366,1023
0.299,-46,0.372,1069
0.307,-16,0.377,1033
0.314,154,0.383,1177
0.322,502,0.389,1221
0.33,679,0.394,1152
0.338,214,0.4,1285
0.345,-580,0.406,1299
0.353,-720,0.411,1384
0.361,-290,0.417,1446
0.368,-170,0.423,1451
0.376,-297,0.43,1505
0.384,-255,0.435,1558
0.391,-193,0.441,1527
0.399,-269,0.447,1612
0.407,-322,0.452,1543
0.414,-264,0.458,1739
0.422,-218,0.464,1768
0.43,-198,0.47,1908
0.438,-147,0.475,1981
0.445,-117,0.481,1992
0.453,-96,0.487,2096
0.461,-52,0.492,2125
0.468,-16,0.498,2351
0.476,18,0.504,2325
0.484,62,0.509,2504
0.491,89,0.515,2460
0.499,115,0.521,2588
0.507,152,0.526,2609
0.515,175,0.532,2787
0.522,188,0.538,2928
0.53,200,0.543,3008
0.538,177,0.549,3126
0.545,152,0.555,3144
0.553,147,0.56,3223
0.561,105,0.566,3362
0.569,73,0.572,3413
0.576,76,0.577,3425
0.584,62,0.583,3578
0.592,59,0.589,3654
0.599,80,0.595,3632
0.607,82,0.6,3721
0.615,82,0.606,3717
0.622,18,0.612,3702
0.63,-112,0.617,3637
0.638,-133,0.623,3527
0.645,-57,0.629,3484
0.653,-39,0.634,3323
0.661,-34,0.64,3127
0.669,0,0.646,2923
0.676,18,0.651,2619
0.684,41,0.657,2375
0.692,78,0.663,2038
0.699,92,0.668,1928
0.707,85,0.674,1539
0.715,66,0.681,1352
0.722,36,0.687,1061
0.73,46,0.692,766
0.738,50,0.698,586
0.745,32,0.704,334
0.753,32,0.709,40
0.761,2,0.715,-116
0.769,-32,0.721,-298
0.776,-13,0.726,-328
0.784,-39,0.732,-521
0.792,-92,0.738,-589
0.799,-85,0.743,-722
0.807,-73,0.749,-604
0.815,-76,0.755,-826
0.822,-96,0.76,-779
0.83,-165,0.766,-759
0.838,-198,0.772,-755
0.845,-168,0.777,-726
0.853,-163,0.783,-723
0.861,-122,0.789,-634
0.869,140,0.795,-636
0.876,566,0.8,-529
0.884,681,0.806,-418
0.892,73,0.812,-410
0.899,-667,0.817,-233
0.907,-589,0.823,-42
0.915,-161,0.829,39
0.922,-158,0.834,141
0.93,-257,0.84,194
0.938,-237,0.846,327
0.945,-287,0.851,442
0.953,-294,0.857,600
0.961,-207,0.863,582
0.969,-168,0.868,684
0.976,-170,0.874,701
0.984,-152,0.88,703
0.992,-117,0.885,607
0.999,-73,0.891,825
1.007,-20,0.897,716
1.015,18,0.902,798
1.022,11,0.908,979
1.03,-9,0.914,788
1.038,11,0.92,924
1.045,69,0.927,691
1.053,124,0.932,829
1.061,147,0.938,748
1.069,154,0.944,806
1.076,154,0.949,976
1.084,165,0.955,857
1.092,188,0.961,1046
1.099,195,0.966,919
1.107,184,0.972,991
1.115,99,0.978,1017
1.123,-82,0.983,1068
1.13,-177,0.989,1192
1.138,-122,0.995,1137
1.146,-85,1,1125
1.153,-89,1.006,1204
1.161,-92,1.012,1282
1.169,-87,1.017,1225
1.176,-48,1.023,1339
1.184,4,1.029,1524
1.192,48,1.034,1545
1.199,71,1.04,1547
1.207,71,1.046,1603
1.215,76,1.052,1765
1.223,110,1.057,1864
1.23,154,1.063,1902
1.238,186,1.069,2025
1.246,200,1.074,2171
1.253,191,1.08,2157
1.261,172,1.086,2270
1.269,149,1.091,2554
1.276,85,1.097,2577
1.284,20,1.103,2609
1.292,13,1.108,2710
1.299,-34,1.114,2812
1.307,-94,1.12,2911
1.315,-48,1.125,3044
1.323,-16,1.131,3095
1.33,-117,1.137,3277
1.338,-228,1.142,3405
1.346,-241,1.148,3356
1.353,-221,1.154,3506
1.361,-195,1.159,3452
1.369,-145,1.165,3542
1.376,-94,1.171,3435
1.384,-82,1.177,3502
1.392,-92,1.182,3230
1.399,-89,1.189,3265
1.407,-41,1.195,3088
1.415,163,1.201,2984
1.423,575,1.206,2739
1.43,829,1.212,2414
1.438,338,1.218,2123
1.446,-488,1.223,1979
1.453,-543,1.229,1774
1.461,-99,1.235,1457
1.469,-64,1.24,1244
1.476,-228,1.246,966
1.484,-241,1.252,633
1.492,-218,1.257,580
1.499,-198,1.263,318
1.507,-154,1.269,129
1.515,-135,1.274,102
1.523,-195,1.28,-3
1.53,-239,1.286,-229
1.538,-188,1.291,-289
1.546,-122,1.297,-386
1.553,-80,1.303,-437
1.561,-39,1.308,-376
1.569,-16,1.314,-329
1.576,-13,1.32,-337
1.584,18,1.326,-387
1.592,82,1.331,-276
1.599,128,1.337,-295
1.607,152,1.343,-297
1.615,163,1.348,-142
1.623,140,1.354,-52
1.63,140,1.36,171
1.638,179,1.365,221
1.646,207,1.371,305
1.654,186,1.377,394
1.661,78,1.382,470
1.669,-27,1.388,650
1.677,-23,1.394,744
1.684,13,1.399,892
1.692,18,1.405,930
1.7,-2,1.411,1008
1.707,-71,1.416,968
1.715,-115,1.422,979
1.723,-73,1.428,1134
1.73,-11,1.433,1135
1.738,20,1.439,1199
1.746,36,1.445,1263
1.754,41,1.452,1259
1.761,18,1.458,1284
1.769,-11,1.463,1274
1.777,-2,1.469,1376
1.784,36,1.475,1395
1.792,57,1.48,1420
1.8,43,1.486,1373
1.807,32,1.492,1240
1.815,62,1.497,1360
1.823,96,1.503,1231
1.83,76,1.509,1421
1.838,-23,1.514,1264
1.846,-101,1.52,1300
1.854,-80,1.526,1433
1.861,-34,1.532,1420
1.869,-13,1.537,1436
1.877,-13,1.543,1511
1.884,-80,1.549,1557
1.892,-170,1.554,1530
1.9,-172,1.56,1551
1.907,-119,1.566,1516
1.915,-82,1.571,1532
1.923,-59,1.577,1551
1.93,-46,1.583,1569
1.938,-66,1.588,1695
1.946,-55,1.594,1692
1.954,175,1.6,1784
1.961,619,1.605,1789
1.969,822,1.611,1948
1.977,264,1.617,1874
1.984,-488,1.622,1928
1.992,-396,1.628,2143
2,57,1.634,2059
2.007,18,1.639,2158
2.015,-184,1.645,2239
2.023,-239,1.651,2261
2.03,-283,1.657,2422
2.038,-304,1.662,2495
2.046,-255,1.668,2564
2.054,-202,1.674,2624
2.061,-193,1.679,2644
2.069,-184,1.685,2712
2.077,-149,1.691,2792
2.084,-122,1.696,2814
2.092,-92,1.702,2870
2.1,-46,1.708,2825
2.107,-13,1.713,2886
2.115,6,1.719,2875
2.123,32,1.725,2861
2.13,59,1.73,2619
2.138,94,1.736,2534
2.146,131,1.743,2475
2.154,145,1.749,2203
2.161,126,1.754,2008
2.169,133,1.76,1836
2.177,158,1.766,1448
2.185,156,1.771,1331
2.192,140,1.777,1097
2.2,64,1.783,729
2.208,-32,1.788,452
2.215,-46,1.794,233
2.223,-39,1.8,69
2.231,-39,1.805,-74
2.238,-43,1.811,-358
2.246,-101,1.817,-608
2.254,-161,1.822,-643
2.261,-179,1.828,-871
2.269,-184,1.834,-912
2.277,-154,1.84,-783
2.285,-112,1.845,-1041
2.292,-92,1.851,-1070
2.3,-66,1.857,-1035
2.308,-25,1.862,-979
2.315,0,1.868,-929
2.323,13,1.874,-956
2.331,29,1.879,-839
2.338,-25,1.885,-919
2.346,-96,1.891,-776
2.354,-66,1.896,-740
2.361,-11,1.902,-562
2.369,13,1.908,-410
2.377,46,1.913,-419
2.385,69,1.919,-64
2.392,108,1.925,-129
2.4,128,1.93,60
2.408,82,1.936,162
2.415,32,1.942,318
2.423,-27,1.947,391
2.431,-99,1.953,414
2.438,-94,1.959,524
2.446,-48,1.965,530
2.454,-36,1.97,816
2.461,-41,1.976,842
2.469,-36,1.983,770
2.477,34,1.988,894
2.485,331,1.994,951
2.492,789,2,1045
2.5,796,2.006,1140
2.508,-29,2.011,1151
2.515,-702,2.017,1126
2.523,-380,2.023,1273
2.531,50,2.028,1162
2.538,-6,2.034,1248
2.546,-36,2.04,1265
2.554,48,2.045,1295
2.561,-20,2.051,1202
2.569,-99,2.057,1310
2.577,-69,2.062,1320
2.585,-66,2.068,1405
2.592,-110,2.074,1368
2.6,-131,2.079,1358
2.608,-131,2.085,1386
2.615,-108,2.091,1459
2.623,-64,2.096,1631
2.631,-29,2.102,1571
2.638,-16,2.108,1608
2.646,-4,2.113,1679
2.654,16,2.119,1858
2.661,46,2.125,1848
2.669,87,2.131,1836
2.677,119,2.136,1776
2.685,117,2.142,1942
2.692,105,2.148,2035
2.7,103,2.153,2101
2.708,119,2.159,2126
2.715,142,2.165,2130
2.723,126,2.17,2332
2.731,76,2.176,2386
2.738,-16,2.182,2446
2.746,-140,2.187,2532
2.754,-200,2.193,2492
2.762,-193,2.199,2644
2.769,-175,2.204,2594
2.777,-186,2.21,2837
2.785,-244,2.216,2905
2.792,-267,2.221,2979
2.8,-209,2.227,3044
2.808,-145,2.234,2945
2.815,-115,2.24,3023
2.823,-103,2.245,3061
2.831,-103,2.251,3161
2.839,-154,2.257,3071
2.846,-225,2.262,3087
2.854,-204,2.268,3027
2.862,-147,2.274,2857
2.869,-184,2.279,2649
2.877,-271,2.285,2585
2.885,-274,2.291,2321
2.892,-181,2.296,2161
2.9,-115,2.302,1988
2.908,-87,2.308,1746
2.915,-59,2.313,1269
2.923,-50,2.319,1027
2.931,-29,2.325,814
2.939,11,2.331,708
2.946,34,2.336,484
2.954,50,2.342,148
2.962,48,2.348,-217
2.969,11,2.353,-315
2.977,-2,2.359,-487
2.985,16,2.365,-564
2.992,0,2.37,-591
3,-25,2.376,-792
3.008,175,2.382,-878
3.015,626,2.387,-890
3.023,755,2.393,-880
3.031,82,2.399,-883
3.039,-575,2.404,-912
3.046,-343,2.41,-903
3.054,2,2.416,-912
3.062,-119,2.421,-732
3.069,-135,2.427,-767
3.077,13,2.433,-657
3.085,27,2.438,-604
3.092,18,2.444,-597
3.1,50,2.45,-450
3.108,57,2.456,-277
3.115,89,2.461,-233
3.123,145,2.468,-70
3.131,168,2.474,78
3.139,138,2.48,87
3.146,85,2.485,299
3.154,59,2.491,424
3.162,57,2.497,458
3.169,78,2.502,617
3.177,112,2.508,582
3.185,119,2.514,608
3.192,103,2.519,761
3.2,112,2.525,786
3.208,149,2.531,744
3.215,181,2.536,766
3.223,188,2.542,761
3.231,172,2.548,924
3.239,122,2.554,926
3.246,43,2.559,969
3.254,6,2.565,1026
3.262,11,2.571,1035
3.269,0,2.576,1030
3.277,-66,2.582,1053
3.285,-161,2.588,1022
3.292,-163,2.593,1008
3.3,-101,2.599,1127
3.308,-71,2.605,1134
3.316,-46,2.61,1144
3.323,-39,2.616,1163
3.331,-69,2.622,1128
3.339,-108,2.627,1188
3.346,-163,2.633,1149
3.354,-172,2.639,1291
3.362,-135,2.644,1213
3.37,-177,2.65,1411
3.377,-248,2.656,1514
3.385,-209,2.661,1543
3.393,-128,2.667,1482
3.4,-108,2.673,1680
3.408,-124,2.679,1703
3.416,-165,2.684,1604
3.423,-204,2.69,1701
3.431,-154,2.696,1870
3.439,-66,2.701,1935
3.446,-34,2.707,1822
3.454,-20,2.713,1870
3.462,-25,2.718,1915
3.47,-43,2.724,1935
3.477,-13,2.73,2106
3.485,13,2.735,2116
3.493,-11,2.741,2178
3.5,-29,2.747,2180
3.508,-27,2.752,2258
3.516,-41,2.758,2318
3.523,-13,2.765,2269
3.531,248,2.771,2336
3.539,688,2.776,2202
3.546,755,2.782,2252
3.554,62,2.788,2297
3.562,-557,2.793,2107
3.57,-283,2.799,2165
3.577,112,2.805,2016
3.585,25,2.81,1868
3.593,-80,2.816,1618
3.6,-76,2.822,1428
3.608,-101,2.828,1140
3.616,-71,2.833,825
3.623,0,2.839,613
3.631,34,2.845,331
3.639,50,2.85,72
3.646,57,2.856,-191
3.654,78,2.862,-279
3.662,115,2.867,-591
3.67,163,2.873,-843
3.677,204,2.879,-1000
3.685,202,2.884,-1318
3.693,165,2.89,-1329
3.7,142,2.896,-1586
3.708,140,2.901,-1687
3.716,128,2.907,-1778
3.723,124,2.913,-1838
3.731,124,2.918,-1896
3.739,80,2.924,-2031
3.746,25,2.93,-2138
3.754,34,2.935,-2063
3.762,41,2.941,-1976
3.77,-34,2.947,-1927
3.777,-133,2.953,-1863
3.785,-191,2.958,-1921
3.793,-195,2.964,-1741
3.8,-186,2.97,-1699
3.808,-170,2.975,-1521
3.816,-149,2.981,-1467
3.823,-147,2.987,-1365
3.831,-138,2.992,-1247
3.839,-135,2.998,-1092
3.846,-195,3.004,-1079
3.854,-262,3.009,-1018
3.862,-253,3.015,-990
3.87,-214,3.021,-791
3.877,-191,3.028,-682
3.885,-170,3.034,-653
3.893,-133,3.039,-487
3.9,-89,3.045,-413
3.908,-71,3.051,-477
3.916,-57,3.056,-395
3.924,-36,3.062,-334
3.931,-25,3.068,-442
3.939,-6,3.073,-389
3.947,-2,3.079,-448
3.954,-87,3.085,-297
3.962,-200,3.09,-309
3.97,-195,3.096,-272
3.977,-163,3.102,-124
3.985,-223,3.107,-105
3.993,-244,3.113,-112
4,-198,3.119,-103
4.008,-170,3.124,-110
4.016,-142,3.13,-203
4.024,-105,3.136,-123
4.031,-78,3.142,27
4.039,-62,3.147,-62
4.047,6,3.153,-47
4.054,324,3.159,-9
4.062,778,3.164,-50
4.07,771,3.17,-31
4.077,52,3.176,158
4.085,-485,3.181,228
4.093,-214,3.187,110
4.1,94,3.193,154
4.108,16,3.198,261
4.116,-18,3.204,407
4.124,39,3.21,336
4.131,-9,3.215,405
4.139,-85,3.221,555
4.147,-69,3.227,536
4.154,-16,3.232,738
4.162,0,3.238,676
4.17,20,3.244,732
4.177,57,3.249,833
4.185,69,3.255,902
4.193,99,3.261,1004
4.2,149,3.267,1004
4.208,170,3.272,1108
4.216,198,3.278,1311
4.224,230,3.284,1464
4.231,214,3.289,1459
4.239,207,3.295,1524
4.247,228,3.301,1571
4.254,211,3.306,1512
4.262,168,3.312,1419
4.27,135,3.318,1354
4.277,92,3.325,1330
4.285,55,3.33,1056
4.293,34,3.336,822
4.3,-25,3.342,848
4.308,-101,3.347,404
4.316,-177,3.353,196
4.324,-232,3.359,-5
4.331,-216,3.364,-289
4.339,-184,3.37,-560
4.347,-218,3.376,-856
4.354,-285,3.381,-1079
4.362,-322,3.387,-1284
4.37,-280,3.393,-1440
4.377,-216,3.398,-1618
4.385,-195,3.404,-1904
4.393,-179,3.41,-2081
4.4,-156,3.415,-2167
4.408,-145,3.421,-2380
4.416,-112,3.427,-2446
4.424,-66,3.433,-2397
4.431,-39,3.438,-2619
4.439,-23,3.444,-2590
4.447,-13,3.45,-2537
4.455,0,3.455,-2515
4.462,36,3.461,-2622
4.47,57,3.467,-2630
4.478,9,3.472,-2502
4.485,-50,3.478,-2483
4.493,-126,3.484,-2425
4.501,-251,3.489,-2210
4.508,-274,3.495,-2178
4.516,-193,3.501,-2146
4.524,-170,3.506,-2003
4.531,-172,3.512,-1764
4.539,-145,3.518,-1633
4.547,-119,3.523,-1596
4.555,-85,3.529,-1506
4.562,-55,3.535,-1389
4.57,-13,3.54,-1258
4.578,200,3.546,-1225
4.585,614,3.552,-1076
4.593,824,3.558,-951
4.601,327,3.563,-825
4.608,-370,3.569,-785
4.616,-285,3.576,-673
4.624,128,3.582,-625
4.631,110,3.587,-549
4.639,2,3.593,-488
4.647,52,3.599,-557
4.655,55,3.604,-429
4.662,23,3.61,-444
4.67,2,3.616,-510
4.678,-59,3.621,-357
4.685,-92,3.627,-284
4.693,-27,3.633,-347
4.701,29,3.638,-424
4.708,41,3.644,-402
4.716,41,3.65,-319
4.724,20,3.655,-209
4.731,23,3.661,-260
4.739,80,3.667,-167
4.747,135,3.672,-99
4.755,158,3.678,-110
4.762,161,3.684,32
4.77,161,3.689,146
4.778,193,3.695,103
4.785,232,3.701,229
4.793,260,3.707,270
4.801,253,3.712,375
4.808,179,3.718,410
4.816,99,3.724,535
4.824,43,3.729,528
4.831,-25,3.735,598
4.839,-82,3.741,728
4.847,-112,3.746,777
4.855,-198,3.752,1046
4.862,-327,3.758,1086
4.87,-352,3.763,1129
4.878,-280,3.769,1181
4.885,-246,3.775,1171
4.893,-267,3.78,1262
4.901,-329,3.786,1225
4.908,-361,3.792,1549
4.916,-301,3.797,1487
4.924,-237,3.803,1767
4.931,-209,3.809,1690
4.939,-186,3.814,1726
4.947,-191,3.82,1783
4.955,-179,3.826,1723
4.962,-142,3.832,1720
4.97,-156,3.838,1720
4.978,-168,3.844,1526
4.985,-133,3.85,1221
4.993,-115,3.855,1128
5.001,-96,3.861,869
5.009,-59,3.867,608
5.016,-36,3.872,489
5.024,-20,3.878,149
5.032,-59,3.884,-196
5.039,-161,3.889,-349
5.047,-181,3.895,-799
5.055,-99,3.901,-1052
5.062,-46,3.907,-1320
5.07,-32,3.912,-1586
5.078,-62,3.918,-1915
5.085,-163,3.924,-2109
5.093,-115,3.929,-2306
5.101,234,3.935,-2469
5.109,686,3.941,-2566
5.116,736,3.946,-2713
5.124,59,3.952,-2813
5.132,-538,3.958,-3026
5.139,-262,3.963,-3150
5.147,128,3.969,-3034
5.155,78,3.975,-3245
5.162,52,3.98,-2982
5.17,131,3.986,-3120
5.178,101,3.992,-3125
5.185,52,3.997,-3114
5.193,62,4.003,-3073
5.201,76,4.009,-2881
5.209,76,4.014,-2902
5.216,50,4.02,-2747
5.224,16,4.026,-2800
5.232,52,4.032,-2538
5.239,117,4.037,-2485
5.247,140,4.043,-2347
5.255,140,4.049,-2191
5.262,94,4.054,-2180
5.27,55,4.06,-2086
5.278,103,4.067,-1993
5.285,163,4.073,-1896
5.293,193,4.078,-1828
5.301,221,4.084,-1735
5.309,214,4.09,-1733
5.316,202,4.095,-1592
5.324,216,4.101,-1552
5.332,234,4.107,-1652
5.339,230,4.113,-1392
5.347,179,4.118,-1444
5.355,50,4.124,-1468
5.362,-135,4.13,-1346
5.37,-253,4.135,-1228
5.378,-255,4.141,-1163
5.385,-257,4.147,-1164
5.393,-315,4.152,-1020
5.401,-380,4.158,-1243
5.409,-380,4.164,-1196
5.416,-324,4.169,-1220
5.424,-287,4.175,-1215
5.432,-267,4.181,-1095
5.439,-241,4.186,-1052
5.447,-239,4.192,-922
5.455,-251,4.198,-899
5.462,-274,4.203,-866
5.47,-267,4.209,-1005
5.478,-214,4.215,-826
5.485,-193,4.22,-762
5.493,-188,4.226,-754
5.501,-149,4.232,-668
5.509,-101,4.238,-713
5.516,-55,4.243,-571
5.524,-23,4.249,-454
5.532,-9,4.255,-489
5.539,-13,4.26,-391
5.547,-39,4.266,-339
5.555,-34,4.272,-58
5.563,6,4.277,-116
5.57,2,4.283,53
5.578,-57,4.289,101
5.586,-82,4.294,135
5.593,-57,4.3,317
5.601,-52,4.306,365
5.609,6,4.311,510
5.616,257,4.317,494
5.624,608,4.323,538
5.632,658,4.328,682
5.64,43,4.334,711
5.647,-561,4.34,732
5.655,-320,4.345,803
5.663,78,4.351,838
5.67,11,4.357,673
5.678,-27,4.364,661
5.686,69,4.369,379
5.693,82,4.375,172
5.701,76,4.381,20
5.709,80,4.387,-131
5.716,62,4.392,-421
5.724,32,4.398,-716
5.732,2,4.404,-937
5.74,18,4.409,-1224
5.747,43,4.415,-1587
5.755,6,4.421,-1867
5.763,-32,4.426,-2096
5.77,4,4.432,-2318
5.778,50,4.438,-2587
5.786,71,4.443,-2680
5.793,105,4.449,-3091
5.801,135,4.455,-3261
5.809,154,4.46,-3333
5.816,181,4.466,-3417
5.824,195,4.472,-3584
5.832,204,4.477,-3615
5.84,223,4.483,-3632
5.847,200,4.489,-3753
5.855,172,4.494,-3782
5.863,131,4.5,-3775
5.87,11,4.506,-3762
5.878,-80,4.512,-3719
5.886,-87,4.517,-3627
5.893,-124,4.523,-3591
5.901,-186,4.529,-3586
5.909,-214,4.534,-3384
5.916,-237,4.54,-3335
5.924,-251,4.546,-3267
5.932,-278,4.551,-3186
5.94,-345,4.557,-3060
5.947,-377,4.563,-2837
5.955,-375,4.568,-2665
5.963,-393,4.574,-2656
5.97,-375,4.58,-2456
5.978,-329,4.585,-2435
5.986,-313,4.591,-2185
5.993,-278,4.597,-2162
6.001,-230,4.602,-2006
6.009,-209,4.608,-1944
6.016,-179,4.614,-1793
6.024,-149,4.619,-1701
6.032,-124,4.627,-1827
6.04,-78,4.632,-1639
6.047,-59,4.638,-1631
6.055,-66,4.644,-1498
6.063,-66,4.649,-1436
6.07,-62,4.655,-1373
6.078,-62,4.661,-1431
6.086,-48,4.666,-1359
6.093,-13,4.672,-1271
6.101,4,4.678,-1329
6.109,-36,4.683,-1274
6.117,-73,4.689,-1051
6.124,99,4.695,-1166
6.132,550,4.7,-1120
6.14,806,4.706,-1076
6.147,292,4.712,-956
6.155,-476,4.717,-956
6.163,-497,4.723,-975
6.17,-85,4.729,-810
6.178,-11,4.734,-709
6.186,-80,4.74,-705
6.194,-32,4.746,-690
6.201,-55,4.752,-634
6.209,-117,4.757,-662
6.217,-57,4.763,-586
6.224,25,4.769,-501
6.232,41,4.774,-379
6.24,57,4.78,-335
6.247,69,4.786,-43
6.255,41,4.791,-48
6.263,16,4.797,-66
6.27,52,4.803,200
6.278,105,4.808,223
6.286,108,4.814,272
6.294,112,4.82,401
6.301,147,4.825,467
6.309,184,4.831,658
6.317,223,4.837,804
6.324,244,4.842,1010
6.332,225,4.848,964
6.34,170,4.854,1061
6.347,115,4.859,1107
6.355,126,4.865,1172
6.363,128,4.871,1154
6.37,18,4.877,1007
6.378,-115,4.882,1107
6.386,-147,4.888,1003
6.394,-126,4.894,714
6.401,-110,4.899,566
6.409,-85,4.906,331
6.417,-78,4.912,82
6.424,-133,4.917,-298
6.432,-195,4.923,-581
6.44,-246,4.929,-972
6.447,-308,4.935,-1097
6.455,-315,4.94,-1432
6.463,-285,4.946,-1747
6.47,-333,4.952,-1957
6.478,-414,4.957,-2160
6.486,-407,4.963,-2440
6.494,-327,4.969,-2668
6.501,-278,4.974,-2853
6.509,-271,4.98,-3022
6.517,-255,4.986,-3290
6.524,-230,4.991,-3330
6.532,-193,4.997,-3590
6.54,-133,5.003,-3342
6.547,-94,5.008,-3604
6.555,-85,5.014,-3702
6.563,-99,5.02,-3752
6.57,-115,5.025,-3633
6.578,-85,5.031,-3737
6.586,-41,5.037,-3678
6.594,-6,5.042,-3526
6.601,13,5.048,-3589
6.609,-9,5.054,-3413
6.617,-50,5.06,-3283
6.624,-29,5.065,-3140
6.632,179,5.071,-3035
6.64,610,5.077,-3027
6.647,877,5.082,-2765
6.655,386,5.088,-2768
6.663,-437,5.094,-2774
6.67,-449,5.099,-2431
6.678,55,5.105,-2370
6.686,101,5.111,-2183
6.694,-94,5.116,-2102
6.701,-145,5.122,-2073
6.709,-158,5.128,-1961
6.717,-128,5.133,-1769
6.725,-52,5.139,-1711
6.732,-2,5.146,-1723
6.74,13,5.152,-1472
6.748,11,5.157,-1506
6.755,43,5.163,-1362
6.763,105,5.169,-1415
6.771,138,5.174,-1319
6.778,138,5.18,-1170
6.786,108,5.186,-1311
6.794,73,5.192,-1143
6.801,85,5.197,-1162
6.809,126,5.203,-1054
6.817,172,5.209,-1051
6.825,198,5.214,-926
6.832,165,5.22,-937
6.84,85,5.226,-897
6.848,66,5.231,-641
6.855,122,5.237,-675
6.863,145,5.243,-491
6.871,96,5.248,-503
6.878,-4,5.254,-470
6.886,-99,5.26,-447
6.894,-94,5.265,-380
6.901,-55,5.271,-306
6.909,-50,5.277,-173
6.917,-32,5.282,-81
6.925,-27,5.288,-34
6.932,-73,5.294,80
6.94,-124,5.299,277
6.948,-163,5.305,280
6.955,-168,5.311,370
6.963,-204,5.317,446
6.971,-338,5.322,568
6.978,-416,5.328,733
6.986,-361,5.334,803
6.994,-306,5.339,864
7.001,-280,5.345,1148
7.009,-246,5.351,1233
7.017,-244,5.356,1233
7.025,-255,5.362,1415
7.032,-214,5.368,1432
7.04,-147,5.373,1555
7.048,-112,5.379,1588
7.055,-82,5.385,1815
7.063,-78,5.39,1784
7.071,-94,5.396,1668
7.078,-69,5.402,1731
7.086,-39,5.407,1553
7.094,-25,5.414,1520
7.101,0,5.42,1297
7.109,0,5.426,1133
7.117,-4,5.431,861
7.125,13,5.437,517
7.132,27,5.443,275
7.14,71,5.448,-44
7.148,253,5.454,-143
7.155,608,5.46,-464
7.163,755,5.466,-944
7.171,172,5.471,-1113
7.178,-555,5.477,-1457
7.186,-446,5.483,-1715
7.194,-39,5.488,-1955
7.201,-46,5.494,-2188
7.209,-94,5.5,-2395
7.217,13,5.505,-2510
7.225,55,5.511,-2544
7.232,66,5.517,-2726
7.24,117,5.522,-2836
7.248,133,5.528,-2914
7.255,128,5.534,-3010
7.263,165,5.539,-2970
7.271,218,5.545,-3008
7.279,255,5.551,-3108
7.286,264,5.556,-3003
7.294,262,5.562,-3015
7.302,234,5.568,-2938
7.309,209,5.573,-2876
7.317,232,5.579,-2875
7.325,202,5.585,-2680
7.332,59,5.591,-2588
7.34,-16,5.596,-2525
7.348,23,5.602,-2322
7.355,64,5.608,-2264
7.363,85,5.613,-2081
7.371,85,5.619,-1908
7.379,11,5.625,-1773
7.386,-76,5.63,-1602
7.394,-85,5.636,-1613
7.402,-73,5.642,-1387
7.409,-82,5.647,-1120
7.417,-82,5.653,-1071
7.425,-105,5.659,-1199
7.432,-163,5.664,-956
7.44,-191,5.67,-919
7.448,-154,5.677,-862
7.455,-96,5.683,-720
7.463,-99,5.689,-700
7.471,-140,5.694,-614
7.479,-142,5.7,-610
7.486,-168,5.706,-608
7.494,-216,5.711,-444
7.502,-221,5.717,-519
7.509,-264,5.723,-465
7.517,-327,5.728,-460
7.525,-304,5.734,-375
7.532,-260,5.74,-303
7.54,-237,5.745,-271
7.548,-198,5.751,-59
7.555,-165,5.757,-200
7.563,-147,5.762,-50
7.571,-122,5.768,-56
7.579,-101,5.774,13
7.586,-92,5.779,107
7.594,-73,5.785,123
7.602,-64,5.791,233
7.609,-55,5.796,328
7.617,-25,5.802,385
7.625,-11,5.808,504
7.632,0,5.814,462
7.64,27,5.819,564
7.648,16,5.825,548
7.655,52,5.831,697
7.663,327,5.836,740
7.671,776,5.842,902
7.679,879,5.848,1037
7.686,108,5.853,1174
7.694,-753,5.859,1187
7.702,-559,5.865,1359
7.709,-36,5.87,1384
7.717,-55,5.876,1394
7.725,-112,5.882,1628
7.732,4,5.887,1699
7.74,23,5.893,1832
7.748,20,5.899,1894
7.755,94,5.904,1884
7.763,122,5.91,1990
7.771,117,5.916,1738
7.779,152,5.921,1765
7.786,186,5.927,1655
7.794,223,5.933,1639
7.802,262,5.939,1245
7.81,271,5.944,1000
7.817,283,5.95,829
7.825,276,5.957,531
7.833,241,5.963,264
7.84,262,5.968,-156
7.848,285,5.974,-378
7.856,257,5.98,-580
7.863,248,5.985,-991
7.871,251,5.991,-1316
7.879,170,5.997,-1458
7.886,64,6.002,-1771
7.894,57,6.008,-1871
7.902,71,6.014,-1994
7.91,39,6.019,-2248
7.917,18,6.025,-2483
7.925,-25,6.031,-2511
7.933,-78,6.036,-2609
7.94,-64,6.042,-2740
7.948,-52,6.048,-2813
7.956,-124,6.053,-2812
7.963,-253,6.059,-2886
7.971,-299,6.065,-2872
7.979,-218,6.07,-2912
7.986,-195,6.076,-2904
7.994,-248,6.082,-2813
8.002,-262,6.088,-2735
8.01,-280,6.093,-2533
8.017,-297,6.099,-2438
8.025,-267,6.105,-2245
8.033,-251,6.11,-2251
8.04,-283,6.116,-2091
8.048,-333,6.122,-2045
8.056,-363,6.127,-1865
8.063,-320,6.133,-1716
8.071,-255,6.139,-1542
8.079,-221,6.144,-1381
8.086,-202,6.15,-1262
8.094,-193,6.156,-1202
8.102,-186,6.161,-1003
8.11,-163,6.167,-926
8.117,-131,6.173,-981
8.125,-112,6.178,-827
8.133,-105,6.184,-634
8.14,-99,6.19,-649
8.148,-80,6.195,-547
8.156,-41,6.201,-428
8.163,-36,6.208,-261
8.171,-46,6.214,-237
8.179,161,6.219,-334
8.186,612,6.225,-289
8.194,764,6.231,-305
8.202,122,6.237,-172
8.21,-575,6.242,-152
8.217,-375,6.248,-55
8.225,18,6.254,78
8.233,-108,6.259,70
8.24,-188,6.265,120
8.248,-39,6.271,126
8.256,11,6.276,90
8.263,0,6.282,160
8.271,29,6.288,223
8.279,46,6.293,347
8.286,66,6.299,371
8.294,124,6.305,421
8.302,181,6.31,614
8.31,202,6.316,508
8.317,204,6.322,695
8.325,211,6.327,582
8.333,248,6.333,834
8.34,297,6.339,909
8.348,301,6.344,1078
8.356,271,6.35,1086
8.364,244,6.356,1144
8.371,230,6.362,1364
8.379,202,6.367,1385
8.387,117,6.373,1490
8.394,62,6.379,1647
8.402,87,6.384,1651
8.41,57,6.39,1777
8.417,-29,6.396,1762
8.425,-66,6.401,1879
8.433,-50,6.407,1932
8.44,-43,6.413,1971
8.448,-94,6.418,2058
8.456,-234,6.424,2041
8.464,-340,6.43,2014
8.471,-287,6.435,1811
8.479,-200,6.441,1687
8.487,-179,6.447,1463
8.494,-161,6.452,1352
8.502,-152,6.458,1041
8.51,-163,6.464,843
8.517,-158,6.471,546
8.525,-152,6.476,289
8.533,-168,6.482,-112
8.54,-200,6.488,-468
8.548,-228,6.493,-625
8.556,-214,6.499,-951
8.564,-184,6.505,-1079
8.571,-175,6.51,-1470
8.579,-165,6.516,-1611
8.587,-186,6.522,-1846
8.594,-246,6.527,-2018
8.602,-239,6.533,-2183
8.61,-168,6.539,-2341
8.617,-117,6.545,-2421
8.625,-96,6.55,-2548
8.633,-103,6.556,-2569
8.64,-131,6.562,-2581
8.648,-124,6.567,-2630
8.656,-99,6.573,-2565
8.664,-119,6.579,-2727
8.671,-145,6.584,-2567
8.679,-126,6.59,-2545
8.687,-140,6.596,-2476
8.694,-138,6.601,-2277
8.702,52,6.607,-2307
8.71,469,6.613,-2106
8.717,845,6.618,-2071
8.725,582,6.624,-1805
8.733,-239,6.63,-1710
8.74,-497,6.635,-1651
8.748,-50,6.641,-1601
8.756,124,6.647,-1404
8.764,-18,6.652,-1254
8.771,-57,6.658,-1196
8.779,-59,6.664,-1015
8.787,-52,6.67,-889
8.794,16,6.675,-762
8.802,80,6.681,-714
8.81,94,6.687,-552
8.817,99,6.692,-517
8.825,112,6.698,-495
8.833,142,6.704,-376
8.84,195,6.711,-175
8.848,228,6.716,-211
8.856,246,6.722,-99
8.864,248,6.728,-28
8.871,214,6.733,-124
8.879,168,6.739,-112
8.887,105,6.745,-38
8.894,55,6.75,-136
8.902,69,6.756,12
8.91,50,6.762,50
8.917,-4,6.767,108
8.925,2,6.773,193
8.933,32,6.779,181
8.941,29,6.784,406
8.948,-32,6.79,310
8.956,-126,6.796,407
8.964,-158,6.801,479
8.971,-135,6.807,594
8.979,-112,6.813,595
8.987,-108,6.818,680
8.995,-156,6.824,671
9.002,-218,6.83,716
9.01,-211,6.836,851
9.018,-154,6.841,959
9.025,-110,6.847,989
9.033,-108,6.853,1123
9.041,-135,6.858,1161
9.048,-165,6.864,1283
9.056,-191,6.87,1344
9.064,-211,6.875,1454
9.071,-198,6.881,1700
9.079,-170,6.887,1663
9.087,-175,6.892,1791
9.095,-177,6.898,1946
9.102,-172,6.904,2022
9.11,-172,6.909,2109
9.118,-140,6.915,2368
9.125,-119,6.921,2192
9.133,-168,6.926,2174
9.141,-184,6.932,2201
9.148,-161,6.938,2165
9.156,-195,6.943,1982
9.164,-223,6.949,1900
9.171,-204,6.956,1869
9.179,-191,6.962,1521
9.187,-179,6.967,1246
9.195,-149,6.973,1112
9.202,-108,6.979,684
9.21,-66,6.984,475
9.218,-50,6.99,171
9.225,-59,6.996,-112
9.233,29,7.001,-354
9.241,366,7.007,-544
9.248,796,7.013,-821
9.256,776,7.018,-1119
9.264,52,7.024,-1102
9.271,-474,7.03,-1450
9.279,-158,7.036,-1687
9.287,161,7.041,-1879
9.295,71,7.047,-1813
9.302,59,7.053,-1867
9.31,94,7.058,-2039
9.318,36,7.064,-2024
9.325,50,7.07,-2014
9.333,108,7.075,-2070
9.341,126,7.081,-2023
9.348,147,7.087,-2110
9.356,172,7.092,-2051
9.364,191,7.098,-2097
9.371,216,7.104,-1887
9.379,218,7.109,-1886
9.387,135,7.115,-1823
9.395,34,7.121,-1832
9.402,16,7.126,-1565
9.41,43,7.132,-1446
9.418,69,7.138,-1181
9.425,89,7.143,-1041
9.433,105,7.149,-1057
9.441,138,7.155,-770
9.448,147,7.161,-738
9.456,152,7.166,-650
9.464,154,7.172,-411
9.471,138,7.178,-493
9.479,124,7.183,-247
9.487,78,7.189,-375
9.495,-18,7.196,-222
9.502,-50,7.202,-134
9.51,-25,7.207,-43
9.518,-34,7.213,3
9.525,-39,7.219,54
9.533,-59,7.224,140
9.541,-112,7.23,259
9.549,-126,7.236,500
9.556,-131,7.241,612
9.564,-168,7.247,468
9.572,-204,7.253,550
9.579,-225,7.259,527
9.587,-232,7.264,485
9.595,-202,7.27,549
9.602,-172,7.276,550
9.61,-175,7.281,649
9.618,-165,7.287,705
9.625,-152,7.293,792
9.633,-156,7.298,755
9.641,-163,7.304,915
9.649,-211,7.31,1027
9.656,-255,7.315,1081
9.664,-239,7.321,1040
9.672,-260,7.327,1188
9.679,-287,7.332,1283
9.687,-221,7.338,1296
9.695,-170,7.344,1407
9.702,-175,7.349,1469
9.71,-170,7.355,1490
9.718,-152,7.361,1654
9.725,-124,7.366,1708
9.733,-80,7.372,1800
9.741,-36,7.378,1857
9.749,-27,7.384,1918
9.756,-32,7.389,2215
9.764,-25,7.395,2275
9.772,82,7.401,2378
9.779,439,7.406,2438
9.787,852,7.412,2555
9.795,727,7.418,2601
9.802,-34,7.423,2710
9.81,-456,7.429,2704
9.818,-71,7.435,2882
9.825,223,7.44,2825
9.833,126,7.446,2748
9.841,117,7.452,2830
9.849,128,7.457,2622
9.856,43,7.464,2554
9.864,59,7.47,2250
9.872,145,7.476,2012
9.879,154,7.481,1920
9.887,76,7.487,1578
9.895,-43,7.493,1309
9.902,-82,7.498,1017
9.91,-32,7.504,762
9.918,20,7.51,474
9.925,41,7.515,299
9.933,50,7.521,-34
9.941,66,7.527,-331
9.949,87,7.532,-451
9.956,131,7.538,-703
9.964,181,7.544,-860
9.972,195,7.549,-1024
9.979,191,7.555,-1269
9.987,184,7.561,-1406
9.995,179,7.567,-1387
10.002,200,7.572,-1563
10.01,218,7.578,-1558
10.018,209,7.584,-1482
10.025,140,7.589,-1551
10.033,27,7.595,-1442
10.041,-18,7.601,-1388
10.049,13,7.606,-1407
10.056,20,7.612,-1351
10.064,-29,7.618,-1231
10.072,-133,7.623,-1129
10.08,-237,7.629,-1137
10.087,-271,7.635,-991
10.095,-241,7.64,-862
10.103,-204,7.646,-607
10.11,-202,7.652,-698
10.118,-218,7.657,-540
10.126,-221,7.663,-304
10.133,-211,7.669,-264
10.141,-232,7.674,-139
10.149,-253,7.68,-2
10.156,-234,7.686,313
10.164,-232,7.692,240
10.172,-253,7.697,329
10.18,-216,7.704,383
10.187,-158,7.71,386
10.195,-126,7.716,537
10.203,-112,7.721,466
10.21,-165,7.727,592
10.218,-211,7.733,767
10.226,-145,7.738,743
10.233,-78,7.744,808
10.241,-62,7.75,953
10.249,-59,7.755,883
10.256,-80,7.761,846
10.264,-80,7.767,920
10.272,-29,7.772,969
10.28,27,7.778,1069
10.287,55,7.784,1149
10.295,59,7.789,1209
10.303,36,7.795,1200
10.31,64,7.801,1237
10.318,322,7.807,1286
10.326,773,7.812,1287
10.333,944,7.818,1236
10.341,363,7.824,1431
10.349,-382,7.829,1449
10.356,-285,7.835,1648
10.364,177,7.841,1758
10.372,209,7.846,1671
10.38,131,7.852,1853
10.387,126,7.858,1775
10.395,-6,7.863,1896
10.403,-103,7.869,1874
10.41,-66,7.875,2071
10.418,-23,7.88,2060
10.426,-13,7.886,2200
10.433,-55,7.892,2296
10.441,-115,7.897,2203
10.449,-92,7.903,2406
10.456,-18,7.909,2428
10.464,23,7.914,2510
10.472,46,7.92,2599
10.48,66,7.926,2789
10.487,64,7.932,2722
10.495,85,7.937,2788
10.503,145,7.943,2807
10.51,186,7.949,2909
10.518,198,7.954,3080
10.526,184,7.96,2878
10.533,154,7.967,2999
10.541,172,7.972,2774
10.549,211,7.978,2616
10.556,218,7.984,2553
10.564,177,7.99,2183
10.572,43,7.995,1982
10.58,-92,8.001,1791
10.587,-131,8.007,1550
10.595,-149,8.012,1204
10.603,-161,8.018,1009
10.611,-152,8.024,509
10.618,-165,8.029,301
10.626,-202,8.035,84
10.634,-241,8.041,-119
10.641,-244,8.046,-417
10.649,-200,8.052,-728
10.657,-177,8.058,-739
10.664,-191,8.063,-1005
10.672,-191,8.069,-1140
10.68,-156,8.075,-1284
10.687,-117,8.08,-1495
10.695,-96,8.086,-1565
10.703,-128,8.092,-1640
10.711,-214,8.097,-1679
10.718,-225,8.103,-1546
10.726,-154,8.109,-1590
10.734,-117,8.115,-1636
10.741,-92,8.12,-1600
10.749,-105,8.126,-1510
10.757,-168,8.132,-1477
10.764,-165,8.137,-1347
10.772,-119,8.143,-1188
10.78,-85,8.149,-1238
10.787,-59,8.154,-1036
10.795,-52,8.16,-1055
10.803,-48,8.166,-854
10.811,-32,8.171,-700
10.818,0,8.177,-680
10.826,46,8.183,-489
10.834,59,8.188,-436
10.841,50,8.194,-326
10.849,126,8.2,-218
10.857,453,8.207,-18
10.864,888,8.213,-71
10.872,773,8.218,104
10.88,-108,8.224,123
10.887,-672,8.23,156
10.895,-350,8.235,252
10.903,-87,8.241,332
10.911,-175,8.247,505
10.918,-145,8.252,492
10.926,-131,8.258,595
10.934,-241,8.264,616
10.941,-244,8.269,710
10.949,-170,8.275,842
10.957,-142,8.281,815
10.964,-103,8.287,881
10.972,-59,8.292,892
10.98,-41,8.298,763
10.987,-18,8.304,935
10.995,9,8.309,904
11.003,48,8.315,1090
11.011,96,8.321,1136
11.018,126,8.326,1239
11.026,145,8.332,1190
11.034,170,8.338,1293
11.041,195,8.343,1260
11.049,209,8.349,1296
11.057,216,8.355,1389
11.064,177,8.36,1410
11.072,105,8.366,1566
11.08,96,8.372,1640
11.087,82,8.377,1636
11.095,29,8.383,1849
11.103,-18,8.389,1906
11.111,-89,8.394,1944
11.118,-165,8.4,2005
11.126,-223,8.406,2049
11.134,-280,8.412,2130
11.141,-269,8.417,2251
11.149,-223,8.423,2376
11.157,-216,8.429,2520
11.164,-198,8.434,2590
11.172,-165,8.44,2671
11.18,-152,8.446,2744
11.188,-138,8.451,2784
11.195,-115,8.457,2904
11.203,-94,8.463,2827
11.211,-69,8.468,2831
11.218,-43,8.474,2857
11.226,-34,8.48,2784
11.234,-39,8.485,2745
11.241,-94,8.491,2481
11.249,-223,8.497,2427
11.257,-262,8.504,2210
11.265,-184,8.509,1889
11.272,-147,8.515,1729
11.28,-126,8.521,1397
11.288,-80,8.526,1217
11.295,-52,8.532,900
11.303,-25,8.538,579
11.311,-4,8.543,229
11.318,-2,8.549,-88
11.326,11,8.555,-315
11.334,27,8.56,-445
11.341,43,8.566,-605
11.349,78,8.572,-880
11.357,110,8.578,-924
11.365,96,8.583,-1094
11.372,27,8.589,-1202
11.38,82,8.595,-1269
11.388,442,8.6,-1434
11.395,865,8.606,-1527
11.403,663,8.612,-1584
11.411,-283,8.617,-1652
11.418,-757,8.623,-1645
11.426,-301,8.629,-1574
11.434,-32,8.634,-1510
11.441,-170,8.64,-1544
11.449,-131,8.646,-1411
11.457,-34,8.651,-1417
11.465,-85,8.657,-1234
11.472,-163,8.663,-1077
11.48,-158,8.668,-1000
11.488,-101,8.674,-776
11.495,-57,8.68,-674
11.503,-29,8.685,-615
11.511,-11,8.691,-514
11.518,2,8.697,-355
11.526,41,8.703,-194
11.534,96,8.708,-63
11.541,135,8.714,100
11.549,152,8.72,75
11.557,165,8.725,173
11.565,191,8.731,347
11.572,221,8.737,450
11.58,260,8.744,580
11.588,283,8.749,744
11.595,244,8.755,727
11.603,142,8.761,628
11.611,23,8.766,662
11.618,-64,8.772,725
11.626,-126,8.778,869
11.634,-161,8.783,848
11.641,-177,8.789,979
11.649,-216,8.795,997
11.657,-237,8.8,947
11.665,-204,8.806,1044
11.672,-175,8.812,1079
11.68,-156,8.817,1189
11.688,-152,8.823,1283
11.695,-156,8.829,1351
11.703,-126,8.835,1320
11.711,-82,8.84,1303
11.718,-52,8.846,1403
11.726,-29,8.852,1489
11.734,-25,8.857,1585
11.742,-25,8.863,1457
11.749,-9,8.869,1644
11.757,27,8.874,1776
11.765,66,8.88,1770
11.772,66,8.886,1935
11.78,-16,8.891,1974
11.788,-168,8.897,2121
11.796,-228,8.903,2120
11.803,-131,8.908,2080
11.811,-59,8.914,2254
11.819,-48,8.92,2284
11.826,-34,8.925,2420
11.834,-43,8.931,2494
11.842,-34,8.937,2625
11.849,0,8.942,2715
11.857,13,8.948,2707
11.865,-13,8.954,2925
11.872,-66,8.96,2920
11.88,-62,8.965,2958
11.888,-11,8.971,3063
11.896,4,8.977,3268
11.903,0,8.982,3258
11.911,94,8.988,3290
11.919,426,8.994,3298
11.926,716,9,3312
11.934,320,9.006,3298
11.942,-442,9.012,3030
11.949,-504,9.018,2936
11.957,-110,9.023,2752
11.965,-133,9.029,2606
11.972,-306,9.035,2305
11.98,-209,9.04,1963
11.988,-115,9.046,1803
11.996,-126,9.052,1450
12.003,-89,9.057,1198
12.011,-66,9.063,741
12.019,-73,9.069,547
12.026,-18,9.074,404
12.034,43,9.08,147
12.042,76,9.086,-64
12.049,99,9.091,-312
12.057,101,9.097,-352
12.065,119,9.103,-707
12.072,170,9.108,-665
12.08,216,9.114,-1033
12.088,255,9.12,-1227
12.096,269,9.125,-1087
12.103,234,9.131,-1294
12.111,161,9.137,-1336
12.119,101,9.143,-1392
12.126,87,9.148,-1265
12.134,55,9.154,-1283
12.142,-46,9.16,-1316
12.149,-154,9.165,-1239
12.157,-188,9.171,-1214
12.165,-168,9.177,-950
12.172,-163,9.182,-1021
12.18,-163,9.188,-874
12.188,-179,9.194,-753
12.196,-216,9.199,-720
12.203,-200,9.205,-428
12.211,-147,9.211,-375
12.219,-112,9.216,-357
12.226,-85,9.222,-194
12.234,-78,9.228,34
12.242,-87,9.233,49
12.249,-59,9.24,401
12.257,-18,9.246,399
12.265,11,9.252,419
12.272,32,9.257,698
12.28,39,9.263,684
12.288,27,9.269,765
12.296,36,9.274,979
12.303,80,9.28,963
12.311,96,9.286,930
12.319,69,9.291,965
12.326,6,9.297,1123
12.334,-48,9.303,1168
12.342,-13,9.309,1131
12.35,41,9.314,1064
12.357,9,9.32,1057
12.365,-59,9.326,1210
12.373,-131,9.331,1249
12.38,-172,9.337,1364
12.388,-135,9.343,1382
12.396,-76,9.348,1308
12.403,-46,9.354,1349
12.411,-80,9.36,1343
12.419,-161,9.365,1546
12.426,-181,9.371,1762
12.434,-92,9.377,1692
12.442,186,9.382,1612
12.45,637,9.388,1739
12.457,796,9.394,1686
12.465,195,9.399,1835
12.473,-522,9.405,1965
12.48,-405,9.411,1896
12.488,9,9.416,1991
12.496,-23,9.422,2073
12.503,-158,9.428,2268
12.511,-161,9.434,2161
12.519,-152,9.439,2354
12.526,-122,9.445,2528
12.534,-69,9.451,2511
12.542,-25,9.456,2793
12.55,-9,9.462,2728
12.557,-4,9.468,2777
12.565,20,9.473,2889
12.573,55,9.48,2788
12.58,99,9.486,3077
12.588,149,9.492,3164
12.596,168,9.497,3291
12.603,149,9.503,3250
12.611,122,9.509,3409
12.619,142,9.514,3432
12.626,198,9.52,3486
12.634,214,9.526,3472
12.642,177,9.531,3543
12.65,124,9.537,3539
12.657,89,9.543,3383
12.665,52,9.548,3334
12.673,0,9.554,3138
12.68,-50,9.56,2934
12.688,-128,9.566,2736
12.696,-200,9.571,2224
12.703,-204,9.577,2218
12.711,-195,9.583,1967
12.719,-186,9.588,1620
12.726,-170,9.594,1368
12.734,-172,9.6,1076
12.742,-170,9.605,740
12.75,-149,9.611,490
12.757,-124,9.617,343
12.765,-78,9.622,128
12.773,-52,9.628,-25
12.78,-55,9.634,-229
12.788,-32,9.639,-382
12.796,-11,9.645,-553
12.803,6,9.651,-696
12.811,32,9.656,-643
12.819,48,9.662,-741
12.826,55,9.668,-795
12.834,59,9.673,-723
12.842,46,9.679,-915
12.85,-6,9.685,-806
12.857,-48,9.691,-790
12.865,-78,9.696,-753
12.873,-117,9.702,-626
12.881,-89,9.708,-570
12.888,-52,9.713,-472
12.896,-50,9.719,-454
12.904,-13,9.725,-321
12.911,-4,9.732,-156
12.919,-78,9.737,16
12.927,-133,9.743,151
12.934,-105,9.749,163
12.942,-55,9.754,363
12.95,-62,9.76,464
12.957,-140,9.766,416
12.965,-94,9.771,603
12.973,246,9.777,649
12.981,674,9.783,749
12.988,619,9.788,915
12.996,-108,9.794,1005
13.004,-584,9.8,1089
13.011,-255,9.806,1202
13.019,29,9.811,1225
13.027,-76,9.817,1317
13.034,-89,9.823,1398
13.042,-39,9.828,1441
13.05,-122,9.834,1442
13.057,-140,9.84,1453
13.065,-52,9.845,1444
13.073,-34,9.851,1508
13.081,-23,9.857,1563
13.088,27,9.862,1475
13.096,16,9.868,1559
13.104,0,9.874,1558
13.111,43,9.879,1610
13.119,76,9.885,1628
13.127,96,9.891,1680
13.134,117,9.896,1822
13.142,135,9.902,1781
13.15,170,9.908,1963
13.157,204,9.913,1914
13.165,218,9.919,1992
13.173,191,9.925,2031
13.181,142,9.931,1983
13.188,117,9.936,2128
13.196,96,9.942,2238
13.204,29,9.948,2161
13.211,-32,9.953,2221
13.219,-73,9.959,2260
13.227,-152,9.965,2255
13.234,-223,9.97,2321
13.242,-204,9.976,2459
13.25,-179,9.982,2585
13.257,-200,9.987,2776
13.265,-193,9.993,2794
13.273,-172,9.999,2952
13.281,-149,10.006,3049
13.288,-108,10.011,3072
13.296,-85,10.017,3083
13.304,-71,10.023,3278
13.311,-59,10.028,3299
13.319,-46,10.034,3443
13.327,-13,10.04,3506
13.334,0,10.045,3519
13.342,-36,10.051,3580
13.35,-78,10.057,3573
13.357,-71,10.062,3741
13.365,-39,10.068,3640
13.373,-25,10.074,3658
13.381,-9,10.079,3606
13.388,25,10.085,3436
13.396,34,10.091,3371
13.404,2,10.096,3183
13.411,-46,10.102,2991
13.419,-92,10.108,2665
13.427,-147,10.114,2498
13.435,-177,10.119,2262
13.442,-177,10.125,1943
13.45,-232,10.131,1616
13.458,-285,10.136,1281
13.465,-218,10.142,1136
13.473,-138,10.148,745
13.481,-133,10.153,591
13.488,-140,10.159,438
13.496,-41,10.165,229
13.504,310,10.17,40
13.512,727,10.176,-10
13.519,596,10.182,-236
13.527,-161,10.187,-314
13.535,-529,10.193,-465
13.542,-128,10.199,-383
13.55,96,10.204,-493
13.558,-46,10.21,-561
13.565,-27,10.216,-565
13.573,52,10.221,-537
13.581,9,10.227,-442
13.588,-29,10.234,-497
13.596,-13,10.24,-351
13.604,23,10.246,-350
13.612,62,10.251,-288
13.619,85,10.257,-223
13.627,55,10.263,-63
13.635,-9,10.268,-3
13.642,4,10.274,260
13.65,78,10.28,311
13.658,117,10.285,426
13.665,140,10.291,457
13.673,147,10.297,766
13.681,147,10.302,746
13.688,181,10.308,871
13.696,223,10.314,925
13.704,253,10.319,1110
13.712,239,10.325,1167
13.719,172,10.331,1332
13.727,122,10.336,1358
13.735,73,10.342,1345
13.742,9,10.348,1436
13.75,-18,10.353,1403
13.758,-55,10.359,1498
13.765,-175,10.365,1634
13.773,-271,10.371,1541
13.781,-239,10.376,1700
13.788,-186,10.382,1601
13.796,-175,10.388,1714
13.804,-156,10.393,1621
13.812,-163,10.399,1761
13.819,-165,10.405,1724
13.827,-131,10.41,1669
13.835,-145,10.416,1802
13.842,-181,10.422,1805
13.85,-170,10.427,1860
13.858,-163,10.433,1824
13.865,-152,10.439,2005
13.873,-103,10.444,1978
13.881,-57,10.45,2041
13.888,-23,10.456,2114
13.896,-11,10.461,2105
13.904,-23,10.467,2214
13.912,-11,10.473,2360
13.919,9,10.478,2302
13.927,-32,10.484,2452
13.935,-101,10.491,2508
13.942,-142,10.497,2606
13.95,-193,10.502,2674
13.958,-216,10.508,2701
13.965,-154,10.514,2717
13.973,-96,10.52,2937
13.981,-71,10.525,2976
13.989,-52,10.531,3043
13.996,-50,10.537,3155
14.004,-34,10.542,3119
14.012,2,10.548,3159
14.019,115,10.554,3208
14.027,453,10.559,3325
14.035,852,10.565,3371
14.042,707,10.571,3543
14.05,-94,10.576,3539
14.058,-504,10.582,3525
14.066,-48,10.588,3731
14.073,255,10.593,3719
14.081,92,10.599,3807
14.089,16,10.605,3909
14.096,41,10.61,3855
14.104,25,10.616,3907
14.112,48,10.622,3782
14.119,50,10.627,3803
14.127,-80,10.633,3538
14.135,-198,10.639,3462
14.142,-133,10.645,3385
14.15,-48,10.65,3071
14.158,-29,10.656,2970
14.166,2,10.662,2675
14.173,23,10.667,2357
14.181,27,10.673,2125
14.189,73,10.679,1793
14.196,131,10.684,1671
14.204,175,10.69,1279
14.212,200,10.696,1051
14.219,198,10.701,907
14.227,200,10.707,748
14.235,223,10.713,594
14.242,253,10.718,384
14.25,260,10.724,229
14.258,204,10.73,85
14.266,115,10.735,88
14.273,18,10.743,18
14.281,-57,10.748,15
14.289,-82,10.754,-132
14.296,-96,10.76,-83
14.304,-175,10.765,-117
14.312,-274,10.771,39
14.319,-301,10.777,-79
14.327,-297,10.782,43
14.335,-308,10.788,180
14.342,-283,10.794,171
14.35,-248,10.799,422
14.358,-253,10.805,286
14.366,-241,10.811,503
14.373,-188,10.816,551
14.381,-138,10.822,697
14.389,-112,10.828,866
14.396,-103,10.833,977
14.404,-96,10.839,1101
14.412,-80,10.845,1189
14.419,-52,10.85,1224
14.427,-27,10.856,1211
14.435,-62,10.862,1358
14.442,-124,10.868,1453
14.45,-119,10.873,1515
14.458,-92,10.879,1567
14.466,-80,10.885,1646
14.473,-52,10.89,1765
14.481,-64,10.896,1742
14.489,-124,10.902,1788
14.496,-138,10.907,1850
14.504,-96,10.913,1837
14.512,-59,10.919,1894
14.519,-29,10.924,1907
14.527,-25,10.93,2021
14.535,20,10.936,1894
14.543,292,10.941,1810
14.55,753,10.947,1926
14.558,863,10.953,1950
14.566,142,10.958,1921
14.573,-608,10.964,1978
14.581,-363,10.97,1963
14.589,122,10.975,2054
14.597,87,10.981,2007
14.604,43,10.987,2156
14.612,158,10.993,2092
14.62,94,10.998,2123
14.627,-57,11.004,2151
14.635,-64,11.01,2239
14.643,-16,11.017,2237
14.65,-9,11.022,2345
14.658,-2,11.028,2445
14.666,-32,11.034,2400
14.673,-66,11.039,2537
14.681,-27,11.045,2525
14.689,16,11.051,2689
14.697,41,11.056,2641
14.704,82,11.062,2662
14.712,105,11.068,2742
14.72,124,11.073,2821
14.727,172,11.079,2843
14.735,204,11.085,2970
14.743,209,11.09,3097
14.75,228,11.096,3153
14.758,248,11.102,3181
14.766,251,11.107,3215
14.773,248,11.113,3221
14.781,225,11.119,3393
14.789,168,11.125,3403
14.797,94,11.13,3385
14.804,18,11.136,3503
14.812,-71,11.142,3525
14.82,-179,11.147,3655
14.827,-248,11.153,3468
14.835,-241,11.159,3612
14.843,-274,11.164,3535
14.85,-356,11.17,3367
14.858,-336,11.176,3176
14.866,-274,11.181,3096
14.873,-269,11.187,2961
14.881,-251,11.193,2661
14.889,-223,11.198,2461
14.897,-211,11.204,2244
14.904,-179,11.21,1942
14.912,-142,11.215,1852
14.92,-131,11.221,1439
14.927,-124,11.227,1144
14.935,-154,11.232,939
14.943,-211,11.238,802
14.95,-193,11.244,493
14.958,-126,11.25,381
14.966,-103,11.255,33
14.973,-92,11.261,80
14.981,-92,11.267,-32
14.989,-115,11.272,-93
14.997,-92,11.278,-283
15.004,-50,11.284,-324
15.012,-41,11.291,-254
15.02,-46,11.296,-163
15.027,-82,11.302,-288
15.035,-112,11.308,-344
15.043,-80,11.314,-186
15.05,6,11.319,-107
15.058,255,11.325,-46
15.066,644,11.331,68
15.073,674,11.336,23
15.081,-20,11.342,77
15.089,-628,11.348,247
15.097,-333,11.353,286
15.104,85,11.359,391
15.112,27,11.365,436
15.12,-11,11.37,614
15.127,101,11.376,744
15.135,133,11.382,815
15.143,138,11.387,972
15.151,152,11.393,1038
15.158,64,11.399,1061
15.166,-50,11.404,1177
15.174,-36,11.41,1398
15.181,34,11.416,1364
15.189,43,11.421,1400
15.197,36,11.427,1262
15.204,13,11.433,1341
15.212,-23,11.439,1361
15.22,2,11.444,1429
15.227,66,11.45,1510
15.235,101,11.456,1523
15.243,105,11.461,1494
15.251,110,11.467,1620
15.258,126,11.473,1624
15.266,152,11.478,1697
15.274,184,11.484,1723
15.281,198,11.49,1652
15.289,172,11.495,1646
15.297,128,11.501,1713
15.304,92,11.507,1675
15.312,39,11.512,1541
15.32,-43,11.518,1634
15.327,-105,11.524,1623
15.335,-154,11.529,1646
15.343,-225,11.535,1777
15.351,-251,11.541,1758
15.358,-207,11.546,1907
15.366,-170,11.552,1874
15.374,-175,11.558,1821
15.381,-223,11.564,1977
15.389,-285,11.569,2029
15.397,-271,11.575,2067
15.404,-207,11.581,2153
15.412,-177,11.588,2128
15.42,-165,11.593,2155
15.427,-163,11.599,2287
15.435,-179,11.605,2314
15.443,-216,11.61,2324
15.451,-262,11.616,2364
15.458,-248,11.622,2354
15.466,-191,11.627,2447
15.474,-186,11.633,2478
15.481,-181,11.639,2570
15.489,-105,11.644,2697
15.497,-46,11.65,2674
15.504,-39,11.656,2786
15.512,-52,11.661,2809
15.52,-138,11.667,3060
15.527,-216,11.673,2943
15.535,-177,11.679,2981
15.543,-103,11.684,2857
15.551,-85,11.69,2890
15.558,-142,11.696,2807
15.566,-216,11.701,2602
15.574,-80,11.707,2524
15.581,356,11.713,2215
15.589,727,11.718,2032
15.597,439,11.724,1894
15.604,-304,11.73,1631
15.612,-474,11.735,1376
15.62,-48,11.741,1093
15.627,105,11.747,743
15.635,23,11.752,510
15.643,92,11.758,153
15.651,142,11.764,-23
15.658,92,11.769,-154
15.666,105,11.775,-440
15.674,175,11.781,-639
15.682,177,11.786,-801
15.689,140,11.792,-960
15.697,80,11.798,-1043
15.705,-11,11.804,-1208
15.712,-27,11.809,-1250
15.72,46,11.815,-1340
15.728,101,11.821,-1363
15.735,112,11.826,-1364
15.743,76,11.832,-1458
15.751,2,11.838,-1440
15.758,4,11.843,-1347
15.766,76,11.85,-1253
15.774,110,11.856,-1199
15.782,131,11.862,-1092
15.789,147,11.867,-1000
15.797,110,11.873,-975
15.805,50,11.879,-871
15.812,29,11.884,-855
15.82,39,11.89,-598
15.828,41,11.896,-618
15.835,4,11.901,-526
15.843,-55,11.907,-386
15.851,-89,11.913,-281
15.858,-101,11.919,-213
15.866,-112,11.924,-226
15.874,-181,11.93,-152
15.882,-304,11.936,-14
15.889,-356,11.941,164
15.897,-308,11.947,178
15.905,-262,11.953,118
15.912,-241,11.958,241
15.92,-225,11.964,56
15.928,-218,11.97,299
15.935,-218,11.975,284
15.943,-241,11.981,361
15.951,-299,11.987,386
15.958,-310,11.992,385
15.966,-260,11.998,361
15.974,-253,12.004,361
15.982,-267,12.009,528
15.989,-198,12.015,392
15.997,-108,12.021,447
16.005,-73,12.026,502
16.012,-55,12.032,534
16.02,-55,12.038,526
16.028,-64,12.044,500
16.035,-43,12.049,666
16.043,-11,12.055,805
16.051,-50,12.061,821
16.058,-177,12.066,900
16.066,-260,12.072,904
16.074,-223,12.078,765
16.082,-172,12.083,862
16.089,-158,12.089,905
16.097,-62,12.095,934
16.105,253,12.1,1037
16.112,644,12.106,1059
16.12,598,12.112,1276
16.128,-73,12.117,1354
16.135,-490,12.124,1266
16.143,-122,12.13,1355
16.151,177,12.136,1460
16.158,57,12.141,1490
16.166,46,12.147,1571
16.174,156,12.153,1558
16.182,165,12.158,1667
16.189,168,12.164,1693
16.197,202,12.17,1969
16.205,202,12.175,1844
16.212,181,12.181,1918
16.22,172,12.187,1946
16.228,179,12.193,1954
16.236,147,12.198,2144
16.243,71,12.204,2029
16.251,50,12.21,2192
16.259,85,12.215,2089
16.266,110,12.221,2014
16.274,140,12.227,1990
16.282,135,12.232,1661
16.289,52,12.238,1570
16.297,-25,12.244,1319
16.305,-29,12.249,1090
16.312,-2,12.255,906
16.32,27,12.261,659
16.328,46,12.266,272
16.336,32,12.272,162
16.343,11,12.278,-212
16.351,9,12.283,-521
16.359,6,12.289,-811
16.366,0,12.295,-1034
16.374,-18,12.3,-1267
16.382,-71,12.306,-1497
16.389,-108,12.312,-1635
16.397,-135,12.318,-1759
16.405,-186,12.323,-1979
16.412,-225,12.329,-1943
16.42,-271,12.335,-2019
16.428,-310,12.34,-2185
16.436,-294,12.346,-2212
16.443,-306,12.352,-2259
16.451,-389,12.357,-2280
16.459,-416,12.363,-2309
16.466,-366,12.37,-2317
16.474,-331,12.376,-2287
16.482,-313,12.382,-2154
16.489,-276,12.387,-2095
16.497,-230,12.393,-1970
16.505,-193,12.399,-1942
16.512,-175,12.404,-1941
16.52,-149,12.41,-1772
16.528,-105,12.416,-1672
16.536,-80,12.421,-1494
16.543,-89,12.427,-1390
16.551,-108,12.433,-1349
16.559,-112,12.438,-1162
16.566,-82,12.444,-1135
16.574,-55,12.45,-1057
16.582,-62,12.455,-930
16.589,-66,12.461,-765
16.597,-87,12.467,-748
16.605,-133,12.472,-619
16.612,-126,12.478,-600
16.62,-94,12.484,-544
16.628,-80,12.489,-475
16.636,62,12.495,-543
16.643,437,12.501,-412
16.651,762,12.507,-415
16.659,502,12.512,-420
16.666,-200,12.518,-324
16.674,-380,12.524,-405
16.682,36,12.529,-312
16.689,181,12.535,-310
16.697,59,12.541,-364
16.705,71,12.546,-254
16.712,43,12.552,-314
16.72,-55,12.558,-183
16.728,-23,12.563,-274
16.736,20,12.569,-355
16.743,-25,12.575,-136
16.751,-23,12.58,-8
16.759,13,12.586,30
16.766,0,12.592,22
16.774,9,12.597,90
16.782,55,12.603,119
16.79,55,12.609,171
16.797,34,12.614,121
16.805,66,12.62,138
16.813,103,12.626,135
16.82,66,12.632,323
16.828,-46,12.637,425
16.836,-112,12.643,475
16.843,-57,12.649,490
16.851,0,12.654,645
16.859,0,12.66,674
16.867,2,12.667,853
16.874,11,12.672,831
16.882,13,12.678,825
16.89,23,12.684,1020
16.897,16,12.69,1069
16.905,-32,12.695,1096
16.913,-94,12.701,1146
16.92,-124,12.707,1161
16.928,-138,12.712,1397
16.936,-158,12.718,1513
16.943,-170,12.724,1519
16.951,-188,12.729,1543
16.959,-253,12.735,1469
16.967,-301,12.741,1527
16.974,-260,12.746,1497
16.982,-204,12.752,1318
16.99,-186,12.758,1198
16.997,-172,12.763,1057
17.005,-163,12.769,724
17.013,-145,12.775,535
17.02,-108,12.78,457
17.028,-80,12.786,31
17.036,-108,12.792,-244
17.043,-154,12.797,-563
17.051,-147,12.803,-921
17.059,-103,12.809,-1128
17.067,-52,12.815,-1364
17.074,-2,12.82,-1662
17.082,34,12.826,-1984
17.09,52,12.832,-2219
17.097,46,12.837,-2374
17.105,46,12.843,-2482
17.113,73,12.849,-2654
17.12,92,12.854,-2805
17.128,89,12.86,-2909
17.136,50,12.866,-2939
17.143,-13,12.871,-3069
17.151,-18,12.877,-3209
17.159,32,12.883,-3235
17.167,59,12.888,-3316
17.174,142,12.894,-3328
17.182,444,12.9,-3316
17.19,836,12.905,-3212
17.197,755,12.913,-3149
17.205,9,12.918,-3107
17.213,-490,12.924,-3131
17.22,-218,12.93,-2882
17.228,27,12.935,-2813
17.236,-55,12.941,-2756
17.243,-23,12.947,-2666
17.251,92,12.952,-2538
17.259,101,12.958,-2527
17.267,94,12.964,-2304
17.274,85,12.969,-2221
17.282,16,12.975,-2212
17.29,-16,12.981,-2078
17.297,23,12.986,-2079
17.305,48,12.992,-1828
17.313,34,12.998,-1775
17.32,-23,13.004,-1704
17.328,-64,13.009,-1770
17.336,-18,13.015,-1653
17.343,48,13.021,-1479
17.351,94,13.026,-1595
17.359,126,13.032,-1505
17.367,122,13.038,-1464
17.374,126,13.043,-1386
17.382,181,13.049,-1448
17.39,230,13.055,-1368
17.397,248,13.06,-1342
17.405,225,13.066,-1351
17.413,128,13.072,-1403
17.421,55,13.077,-1281
17.428,71,13.083,-1299
17.436,48,13.089,-1251
17.444,-29,13.094,-1146
17.451,-71,13.1,-1228
17.459,-135,13.106,-1248
17.467,-184,13.111,-1082
17.474,-152,13.117,-1046
17.482,-133,13.123,-1090
17.49,-147,13.129,-1064
17.497,-193,13.134,-981
17.505,-278,13.14,-928
17.513,-274,13.146,-835
17.521,-209,13.151,-715
17.528,-239,13.157,-742
17.536,-278,13.163,-658
17.544,-255,13.168,-637
17.551,-246,13.174,-479
17.559,-232,13.18,-477
17.567,-170,13.185,-348
17.574,-112,13.191,-253
17.582,-87,13.197,-149
17.59,-89,13.202,-169
17.597,-85,13.209,-47
17.605,-46,13.215,-99
17.613,4,13.221,97
17.621,50,13.226,145
17.628,96,13.232,195
17.636,94,13.238,346
17.644,66,13.243,472
17.651,64,13.249,498
17.659,69,13.255,575
17.667,82,13.26,572
17.674,87,13.266,722
17.682,29,13.272,579
17.69,-16,13.278,581
17.697,4,13.283,500
17.705,34,13.289,221
17.713,124,13.295,60
17.721,382,13.3,-118
17.728,704,13.306,-490
17.736,545,13.312,-546
17.744,-251,13.317,-905
17.751,-621,13.323,-1156
17.759,-149,13.329,-1570
17.767,135,13.334,-1898
17.774,-23,13.34,-2127
17.782,-55,13.346,-2365
17.79,34,13.351,-2605
17.797,11,13.357,-2960
17.805,-18,13.363,-3218
17.813,27,13.368,-3321
17.821,34,13.374,-3581
17.828,16,13.38,-3608
17.836,27,13.385,-3847
17.844,43,13.391,-3967
17.851,66,13.397,-4094
17.859,48,13.403,-4093
17.867,-18,13.408,-4184
17.874,-18,13.414,-4183
17.882,41,13.42,-4206
17.89,87,13.425,-4257
17.897,126,13.431,-4127
17.905,152,13.437,-4166
17.913,156,13.442,-3951
17.921,168,13.448,-3943
17.928,198,13.454,-3745
17.936,230,13.461,-3775
17.944,239,13.466,-3707
17.952,211,13.472,-3505
17.959,131,13.478,-3352
17.967,39,13.483,-3172
17.975,-11,13.489,-3114
17.982,-64,13.495,-3005
17.99,-147,13.501,-2868
17.998,-228,13.506,-2890
18.005,-285,13.512,-2663
18.013,-315,13.518,-2654
18.021,-345,13.523,-2486
18.028,-366,13.529,-2381
18.036,-386,13.535,-2211
18.044,-435,13.54,-2222
18.052,-446,13.546,-2217
18.059,-403,13.552,-2142
18.067,-354,13.557,-2198
18.075,-304,13.563,-2130
18.082,-271,13.569,-2172
18.09,-260,13.574,-1996
18.098,-234,13.58,-1897
18.105,-209,13.586,-1945
18.113,-172,13.591,-1772
18.121,-124,13.597,-1674
18.128,-99,13.603,-1648
18.136,-89,13.608,-1743
18.144,-64,13.614,-1725
18.152,-27,13.62,-1565
18.159,13,13.626,-1492
18.167,48,13.631,-1520
18.175,57,13.637,-1406
18.182,48,13.643,-1345
18.19,50,13.648,-1361
18.198,34,13.654,-1266
18.205,36,13.66,-1197
18.213,89,13.665,-1226
18.221,96,13.671,-1194
18.228,23,13.677,-1055
18.236,-34,13.682,-921
18.244,-34,13.688,-1080
18.252,46,13.694,-845
18.259,327,13.699,-757
18.267,748,13.705,-689
18.275,817,13.711,-635
18.282,179,13.716,-595
18.29,-430,13.722,-417
18.298,-211,13.728,-293
18.305,124,13.733,-224
18.313,-43,13.739,-145
18.321,-172,13.745,-105
18.328,-66,13.751,163
18.336,-46,13.757,55
18.344,-69,13.763,140
18.352,-18,13.769,353
18.359,0,13.774,437
18.367,-9,13.78,274
18.375,6,13.786,446
18.382,27,13.792,510
18.39,57,13.797,716
18.398,43,13.803,715
18.405,-18,13.809,561
18.413,-4,13.814,513
18.421,62,13.82,373
18.428,92,13.826,-42
18.436,117,13.831,-24
18.444,154,13.837,-193
18.452,177,13.843,-407
18.459,207,13.848,-747
18.467,237,13.854,-1200
18.475,218,13.86,-1320
18.482,165,13.865,-1545
18.49,112,13.871,-1838
18.498,50,13.877,-2230
18.506,-25,13.882,-2316
18.513,-119,13.888,-2502
18.521,-211,13.894,-2766
18.529,-246,13.899,-2896
18.536,-299,13.905,-3123
18.544,-370,13.911,-3185
18.552,-350,13.917,-3167
18.559,-304,13.922,-3333
18.567,-304,13.928,-3425
18.575,-317,13.934,-3388
18.582,-366,13.939,-3388
18.59,-380,13.945,-3397
18.598,-310,13.951,-3334
18.606,-262,13.956,-3189
18.613,-260,13.962,-3090
18.621,-239,13.968,-3053
18.629,-204,13.973,-2904
18.636,-175,13.979,-2629
18.644,-131,13.985,-2609
18.652,-89,13.99,-2490
18.659,-73,13.997,-2089
18.667,-66,14.003,-1874
18.675,-43,14.009,-1680
18.682,-11,14.014,-1482
18.69,27,14.02,-1446
18.698,59,14.026,-1338
18.706,76,14.031,-1131
18.713,87,14.037,-1001
18.721,80,14.043,-706
18.729,25,14.048,-499
18.736,-48,14.054,-405
18.744,-66,14.06,-368
18.752,-50,14.065,-56
18.759,-80,14.071,128
18.767,-103,14.077,194
18.775,-55,14.083,325
18.782,-2,14.088,382
18.79,20,14.094,678
18.798,4,14.1,743
18.806,-34,14.105,859
18.813,124,14.111,1072
18.821,555,14.117,1246
18.829,785,14.122,1318
18.836,290,14.128,1408
18.844,-439,14.134,1581
18.852,-451,14.139,1690
18.859,-57,14.145,1723
18.867,-13,14.151,2050
18.875,-80,14.156,2245
18.882,4,14.162,2195
18.89,23,14.168,2400
18.898,-34,14.173,2486
18.906,-11,14.179,2631
18.913,50,14.185,2657
18.921,80,14.19,2771
18.929,103,14.196,2984
18.936,82,14.202,3317
18.944,18,14.208,3282
18.952,29,14.213,3460
18.959,103,14.219,3551
18.967,145,14.225,3602
18.975,165,14.23,3712
18.982,179,14.236,3965
18.99,163,14.243,4216
18.998,128,14.249,4250
19.006,85,14.254,4516
19.013,32,14.26,4662
19.021,-9,14.266,4709
19.029,-32,14.271,4833
19.037,-34,14.277,5092
19.044,-25,14.283,5178
19.052,-23,14.288,5182
19.06,-34,14.294,5409
19.067,-71,14.3,5498
19.075,-181,14.305,5529
19.083,-290,14.311,5750
19.09,-264,14.317,5781
19.098,-202,14.323,5906
19.106,-195,14.328,6025
19.113,-200,14.334,5987
19.121,-251,14.34,6051
19.129,-294,14.345,5909
19.137,-234,14.351,5861
19.144,-168,14.357,5745
19.152,-142,14.362,5559
19.16,-126,14.368,5413
19.167,-119,14.374,5185
19.175,-99,14.379,4863
19.183,-55,14.385,4640
19.19,-9,14.391,4417
19.198,29,14.396,4206
19.206,41,14.402,3995
19.213,29,14.408,3692
19.221,41,14.413,3511
19.229,46,14.419,3176
19.237,-13,14.425,2993
19.244,-62,14.43,2884
19.252,-64,14.436,2703
19.26,-115,14.442,2593
19.267,-115,14.448,2463
19.275,-18,14.453,2457
19.283,36,14.459,2249
19.29,59,14.465,2179
19.298,39,14.47,2159
19.306,-57,14.476,2123
19.313,-82,14.482,2209
19.321,-13,14.487,2424
19.329,23,14.493,2542
19.337,39,14.499,2404
19.344,34,14.504,2428
19.352,-20,14.511,2688
19.36,-43,14.517,2736
19.367,-11,14.523,2810
19.375,16,14.528,2889
19.383,145,14.534,2909
19.39,495,14.54,3111
19.398,806,14.545,3016
19.406,561,14.551,3322
19.413,-138,14.557,3387
19.421,-354,14.562,3362
19.429,29,14.568,3468
19.437,131,14.574,3586
19.444,-36,14.579,3663
19.452,25,14.585,3719
19.46,119,14.591,3637
19.467,105,14.597,3763
19.475,110,14.602,3629
19.483,73,14.608,3637
19.49,2,14.614,3796
19.498,-2,14.619,3607
19.506,6,14.625,3466
19.513,-6,14.631,3626
19.521,-27,14.636,3495
19.529,-50,14.642,3541
19.537,-80,14.648,3545
19.544,-80,14.653,3541
19.552,-32,14.659,3535
19.56,13,14.665,3485
19.567,29,14.67,3432
19.575,25,14.676,3491
19.583,20,14.682,3538
19.59,50,14.687,3438
19.598,99,14.693,3486
19.606,112,14.699,3549
19.614,96,14.704,3496
19.621,55,14.71,3478
19.629,11,14.716,3653
19.637,6,14.722,3785
19.644,16,14.727,3807
19.652,-13,14.733,3908
19.66,-138,14.739,3768
19.667,-285,14.744,3991
19.675,-308,14.75,4018
19.683,-239,14.756,4136
19.691,-191,14.761,4359
19.698,-168,14.768,4381
19.706,-149,14.774,4567
19.714,-131,14.78,4697
19.721,-122,14.785,4935
19.729,-122,14.791,5110
19.737,-184,14.797,5128
19.744,-280,14.802,5293
19.752,-306,14.808,5187
19.76,-271,14.814,5298
19.767,-246,14.819,5211
19.775,-209,14.825,5195
19.783,-152,14.831,5221
19.791,-158,14.836,5156
19.798,-248,14.842,5211
19.806,-271,14.848,5110
19.814,-204,14.853,5113
19.821,-163,14.859,4956
19.829,-131,14.865,4812
19.837,-85,14.87,4596
19.844,-71,14.876,4418
19.852,-41,14.882,4075
19.86,23,14.887,3879
19.867,59,14.893,3714
19.875,34,14.899,3196
19.883,-16,14.905,3121
19.891,-20,14.91,2834
19.898,-2,14.916,2575
19.906,-6,14.922,2287
19.914,11,14.927,1989
19.921,50,14.933,1801
19.929,57,14.939,1438
19.937,57,14.944,1177
19.944,69,14.95,1139
19.952,140,14.956,845
19.96,439,14.961,701
19.967,868,14.967,495
19.975,838,14.973,459
19.983,36,14.978,289
19.991,-617,14.984,288
19.998,-377,14.99,291
20.006,-11,14.995,237
20.014,-55,15.001,195
20.021,-85,15.008,267
20.029,6,15.014,403
20.037,9,15.019,506
20.044,-39,15.025,541
20.052,-27,15.031,547
20.06,-27,15.037,752
20.067,-73,15.042,737
20.075,-59,15.048,911
20.083,-20,15.054,976
20.091,-9,15.059,1003
20.098,6,15.065,1098
20.106,29,15.071,1202
20.114,52,15.076,1281
20.121,80,15.082,1301
20.129,108,15.088,1381
20.137,131,15.093,1304
20.144,147,15.099,1309
20.152,117,15.105,1319
20.16,43,15.11,1336
20.168,32,15.116,1362
20.175,73,15.122,1286
20.183,78,15.127,1355
20.191,71,15.133,1364
20.198,29,15.139,1281
20.206,-71,15.144,1194
20.214,-108,15.15,1346
20.222,-82,15.156,1193
20.229,-105,15.162,1331
20.237,-181,15.167,1273
20.245,-257,15.173,1292
20.252,-257,15.179,1089
20.26,-200,15.184,1234
20.268,-168,15.19,993
20.275,-165,15.196,1028
20.283,-138,15.201,1111
20.291,-89,15.207,1109
20.298,-57,15.213,1017
20.306,-32,15.218,1177
20.314,6,15.224,1239
20.322,23,15.23,1123
20.329,-11,15.235,1188
20.337,-78,15.241,1237
20.345,-101,15.247,1124
20.352,-50,15.252,1238
20.36,-11,15.258,1377
20.368,-6,15.264,1526
20.375,16,15.271,1363
20.383,36,15.276,1455
20.391,50,15.282,1573
20.398,103,15.288,1646
20.406,152,15.293,1855
20.414,124,15.299,1858
20.422,80,15.305,1917
20.429,101,15.31,2051
20.437,126,15.316,2173
20.445,122,15.322,2239
20.452,112,15.327,2287
20.46,105,15.333,2426
20.468,99,15.339,2617
20.475,87,15.345,2701
20.483,64,15.35,2753
20.491,50,15.356,2691
20.498,36,15.362,2605
20.506,13,15.367,2596
20.514,119,15.373,2520
20.522,483,15.379,2152
20.529,845,15.384,2107
20.537,545,15.39,2021
20.545,-294,15.396,1705
20.552,-511,15.401,1414
20.56,-62,15.407,1082
20.568,71,15.413,908
20.575,-62,15.418,540
20.583,-29,15.424,238
20.591,11,15.43,-198
20.598,-62,15.435,-414
20.606,-112,15.441,-580
20.614,-73,15.447,-925
20.622,-32,15.452,-1079
20.629,-13,15.458,-1355
20.637,4,15.464,-1260
20.645,0,15.47,-1480
20.652,2,15.475,-1629
20.66,36,15.481,-1825
20.668,76,15.487,-1737
20.675,105,15.492,-1670
20.683,115,15.498,-1946
20.691,71,15.504,-1725
20.698,-2,15.51,-1680
20.706,6,15.516,-1735
20.714,69,15.522,-1777
20.722,76,15.528,-1596
20.729,36,15.533,-1348
20.737,-48,15.539,-1254
20.745,-145,15.545,-1039
20.752,-145,15.55,-855
20.76,-115,15.556,-835
20.768,-119,15.562,-626
20.776,-135,15.567,-506
20.783,-200,15.573,-311
20.791,-280,15.579,-125
20.799,-260,15.584,25
20.806,-195,15.59,179
20.814,-168,15.596,269
20.822,-140,15.601,367
20.829,-117,15.607,478
20.837,-115,15.613,834
20.845,-89,15.618,854
20.852,-27,15.624,1072
20.86,-4,15.63,1142
20.868,-36,15.635,1290
20.876,-85,15.641,1391
20.883,-105,15.647,1572
20.891,-69,15.653,1666
20.899,-9,15.658,1689
20.906,29,15.664,1955
20.914,43,15.67,2121
20.922,25,15.675,2095
20.929,23,15.681,2096
20.937,76,15.687,2215
20.945,126,15.692,2392
20.952,119,15.698,2361
20.96,69,15.704,2583
20.968,43,15.709,2693
20.976,27,15.715,2805
20.983,-11,15.721,2896
20.991,-4,15.726,3068
20.999,41,15.732,3178
21.006,27,15.738,3188
21.014,-4,15.743,3386
21.022,20,15.75,3453
21.029,66,15.756,3491
21.037,78,15.762,3805
21.045,57,15.767,3750
21.052,36,15.773,3756
21.06,149,15.779,3725
21.068,559,15.784,3913
21.076,932,15.79,3911
21.083,548,15.796,3988
21.091,-301,15.801,3942
21.099,-435,15.807,4067
21.106,13,15.813,4040
21.114,85,15.818,4070
21.122,-64,15.824,4192
21.129,-4,15.83,4231
21.137,20,15.836,4174
21.145,-92,15.841,4069
21.152,-112,15.847,4084
21.16,-46,15.853,4157
21.168,-16,15.858,4161
21.176,0,15.864,4052
21.183,27,15.87,3945
21.191,27,15.875,3920
21.199,13,15.881,3636
21.206,39,15.887,3363
21.214,73,15.892,3242
21.222,41,15.898,2974
21.229,-27,15.904,2552
21.237,-85,15.909,2130
21.245,-152,15.915,1728
21.252,-211,15.921,1344
21.26,-204,15.926,856
21.268,-140,15.932,354
21.276,-94,15.938,-27
21.283,-103,15.943,-477
21.291,-105,15.949,-959
21.299,-87,15.955,-1302
21.307,-78,15.961,-1819
21.314,-73,15.966,-2197
21.322,-76,15.972,-2502
21.33,-96,15.978,-2841
21.337,-108,15.983,-3086
21.345,-82,15.99,-3496
21.353,-36,15.996,-3855
21.36,-2,16.002,-4134
21.368,-39,16.007,-4346
21.376,-117,16.013,-4551
21.383,-131,16.019,-4746
21.391,-87,16.024,-4766
21.399,-62,16.03,-5008
21.407,-48,16.036,-5086
21.414,-62,16.041,-5161
21.422,-126,16.047,-5234
21.43,-135,16.053,-5314
21.437,-71,16.058,-5314
21.445,-18,16.064,-5352
21.453,25,16.07,-5171
21.46,48,16.075,-5082
21.468,11,16.081,-5203
21.476,-36,16.087,-4998
21.483,-29,16.092,-5003
21.491,-11,16.098,-4869
21.499,-18,16.104,-4896
21.507,-18,16.11,-4788
21.514,2,16.115,-4634
21.522,13,16.121,-4616
21.53,23,16.127,-4573
21.537,43,16.132,-4363
21.545,41,16.138,-4367
21.553,20,16.144,-4229
21.56,20,16.149,-4340
21.568,27,16.155,-4239
21.576,32,16.161,-4487
21.583,43,16.166,-4223
21.591,13,16.172,-4309
21.599,-48,16.178,-4391
21.607,103,16.183,-4284
21.614,559,16.189,-4388
21.622,884,16.195,-4183
21.63,467,16.2,-4156
21.637,-359,16.206,-4147
21.645,-453,16.212,-4116
21.653,0,16.217,-4162
21.66,23,16.223,-4064
21.668,-140,16.229,-4148
21.676,-76,16.235,-3959
21.683,-57,16.24,-4102
21.691,-115,16.247,-4096
21.699,-96,16.253,-3956
21.707,-80,16.259,-4043
21.714,-122,16.264,-3931
21.722,-147,16.27,-3975
21.73,-133,16.276,-3779
21.737,-117,16.281,-3810
21.745,-112,16.287,-3659
21.753,-172,16.293,-3517
21.76,-248,16.298,-3505
21.768,-223,16.304,-3430
21.776,-214,16.31,-3410
21.783,-255,16.315,-3322
21.791,-202,16.321,-3237
21.799,-135,16.327,-3099
21.807,-122,16.332,-3030
21.814,-78,16.338,-2984
21.822,-43,16.344,-2749
21.83,-41,16.349,-2759
21.837,-20,16.355,-2543
21.845,-11,16.361,-2502
21.853,-11,16.367,-2364
21.861,-13,16.372,-2396
21.868,-39,16.378,-2268
21.876,-43,16.384,-2080
21.884,-23,16.389,-2081
21.891,-27,16.395,-2002
21.899,-27,16.401,-2202
21.907,-6,16.406,-2254
21.914,-2,16.412,-2320
21.922,0,16.418,-2410
21.93,16,16.423,-2583
21.937,13,16.429,-2789
21.945,29,16.435,-3211
21.953,76,16.44,-3384
21.961,69,16.446,-3587
21.968,29,16.452,-3978
21.976,48,16.457,-4398
21.984,85,16.463,-4748
21.991,87,16.469,-5059
21.999,9,16.474,-5376
22.007,-92,16.48,-5778
22.014,-80,16.486,-6176
22.022,-27,16.492,-6332
22.03,-52,16.497,-6685
22.037,-76,16.503,-6912
22.045,-64,16.51,-7030
22.053,-39,16.515,-7249
22.061,-6,16.521,-7480
22.068,9,16.527,-7667
22.076,0,16.532,-7731
22.084,-4,16.538,-7844
22.091,-2,16.544,-7882
22.099,4,16.55,-7891
22.107,18,16.555,-7919
22.114,25,16.561,-7925
22.122,23,16.567,-7975
22.13,-2,16.572,-7872
22.137,-41,16.578,-7783
22.145,131,16.584,-7611
22.153,619,16.589,-7627
22.161,875,16.595,-7522
22.168,276,16.601,-7398
22.176,-511,16.606,-7191
22.184,-393,16.612,-7068
22.191,59,16.618,-6936
22.199,-2,16.623,-6841
22.207,-172,16.629,-6680
22.214,-168,16.635,-6579
22.222,-202,16.64,-6399
22.23,-234,16.646,-6284
22.237,-186,16.652,-6277
22.245,-154,16.657,-5949
22.253,-188,16.663,-5800
22.261,-257,16.669,-5806
22.268,-294,16.675,-5652
22.276,-260,16.68,-5523
22.284,-216,16.686,-5603
22.291,-186,16.692,-5521
22.299,-149,16.697,-5465
22.307,-128,16.703,-5394
22.314,-158,16.709,-5430
22.322,-198,16.714,-5305
22.33,-145,16.72,-5341
22.337,-59,16.726,-5312
22.345,-43,16.731,-5263
22.353,-52,16.737,-5250
22.361,-36,16.743,-5162
22.368,-13,16.748,-5295
22.376,20,16.755,-5186
22.384,43,16.761,-5239
22.391,41,16.767,-5170
22.399,25,16.772,-5223
22.407,4,16.778,-5092
22.415,2,16.784,-5009
22.422,25,16.789,-4885
22.43,50,16.795,-4854
22.438,73,16.801,-4735
22.445,73,16.807,-4719
22.453,36,16.812,-4684
22.461,4,16.818,-4631
22.468,18,16.824,-4537
22.476,62,16.829,-4325
22.484,73,16.835,-4315
22.492,4,16.841,-4206
22.499,-126,16.846,-4182
22.507,-181,16.852,-4062
22.515,-101,16.858,-3903
22.522,-36,16.863,-3686
22.53,-43,16.869,-3636
22.538,-85,16.875,-3528
22.545,-138,16.88,-3342
22.553,-105,16.886,-3263
22.561,-13,16.892,-3259
22.568,27,16.897,-3210
22.576,46,16.903,-2902
22.584,41,16.909,-2867
22.592,-11,16.914,-2865
22.599,-25,16.92,-2754
22.607,13,16.926,-2475
22.615,41,16.932,-2600
22.622,34,16.937,-2556
22.63,16,16.943,-2569
22.638,9,16.949,-2792
22.645,18,16.954,-2893
22.653,34,16.96,-3232
22.661,50,16.966,-3269
22.668,158,16.971,-3501
22.676,462,16.977,-4037
22.684,757,16.983,-4347
22.692,460,16.988,-4756
22.699,-382,16.994,-5099
22.707,-628,17,-5387
22.715,-140,17.005,-5834
22.722,11,17.011,-6234
22.73,-131,17.017,-6540
22.738,-32,17.024,-6772
22.745,57,17.029,-7143
22.753,-11,17.035,-7481
22.761,-82,17.041,-7771
22.768,-165,17.046,-7996
22.776,-232,17.052,-8382
22.784,-204,17.058,-8447
22.792,-152,17.063,-8515
22.799,-131,17.069,-8724
22.807,-110,17.075,-8729
22.815,-105,17.08,-9009
22.822,-115,17.086,-8997
22.83,-87,17.092,-9002
22.838,-36,17.098,-9090
22.845,-13,17.103,-9013
22.853,-43,17.109,-8882
22.861,-115,17.115,-8827
22.868,-117,17.12,-8766
22.876,-36,17.126,-8550
22.884,4,17.132,-8549
22.892,13,17.137,-8298
22.899,23,17.143,-8093
22.907,0,17.149,-8037
22.915,-4,17.154,-7898
22.922,18,17.16,-7893
22.93,20,17.166,-7731
22.938,9,17.171,-7675
22.945,-43,17.177,-7498
22.953,-94,17.183,-7445
22.961,-71,17.188,-7220
22.969,-25,17.194,-7184
22.976,2,17.2,-7121
22.984,27,17.205,-7103
22.992,29,17.211,-6998
22.999,0,17.217,-6796
23.007,-2,17.223,-6754
23.015,50,17.228,-6707
23.022,101,17.234,-6718
23.03,59,17.24,-6692
23.038,-76,17.245,-6635
23.046,-161,17.251,-6487
23.053,-101,17.257,-6439
23.061,-32,17.262,-6440
23.069,-16,17.268,-6500
23.076,16,17.275,-6306
23.084,36,17.281,-6341
23.092,39,17.286,-6205
23.099,80,17.292,-6205
23.107,131,17.298,-6173
23.115,163,17.303,-6095
23.122,163,17.309,-6043
23.13,133,17.315,-5919
23.138,126,17.321,-5943
23.146,147,17.326,-5826
23.153,158,17.332,-5757
23.161,142,17.338,-5622
23.169,101,17.343,-5612
23.176,34,17.349,-5451
23.184,27,17.355,-5371
23.192,248,17.36,-5224
23.199,649,17.366,-5008
23.207,679,17.372,-4978
23.215,-76,17.377,-4941
23.222,-730,17.383,-4716
23.23,-409,17.389,-4629
23.238,27,17.394,-4435
23.246,-36,17.4,-4468
23.253,-50,17.406,-4157
23.261,34,17.411,-4153
23.269,-66,17.417,-4016
23.276,-135,17.423,-3957
23.284,-50,17.428,-3693
23.292,2,17.434,-3430
23.299,9,17.44,-3395
23.307,39,17.446,-3298
23.315,57,17.451,-3154
23.322,34,17.457,-3126
23.33,16,17.463,-2822
23.338,25,17.468,-3014
23.346,-2,17.474,-2888
23.353,-48,17.48,-2757
23.361,-43,17.485,-3017
23.369,-41,17.491,-3208
23.376,-34,17.497,-3261
23.384,-4,17.502,-3471
23.392,-27,17.508,-3802
23.399,-103,17.514,-3935
23.407,-115,17.519,-4362
23.415,-80,17.525,-4654
23.422,-69,17.531,-5094
23.43,-69,17.536,-5369
23.438,-99,17.542,-5808
23.446,-152,17.549,-6124
23.453,-161,17.555,-6453
23.461,-156,17.56,-6865
23.469,-163,17.566,-7099
23.476,-128,17.572,-7435
23.484,-96,17.577,-7764
23.492,-105,17.583,-8019
23.499,-94,17.589,-8204
23.507,-73,17.595,-8300
23.515,-59,17.6,-8586
23.522,-29,17.606,-8688
23.53,-16,17.612,-8720
23.538,-29,17.617,-8759
23.546,-23,17.623,-8857
23.553,-4,17.629,-9005
23.561,11,17.634,-8834
23.569,6,17.64,-8735
23.577,-89,17.646,-8693
23.584,-188,17.651,-8626
23.592,-154,17.657,-8595
23.6,-89,17.663,-8408
23.607,-69,17.668,-8309
23.615,-34,17.674,-8143
23.623,-11,17.68,-7977
23.63,-11,17.685,-7812
23.638,-4,17.691,-7719
23.646,-2,17.697,-7461
23.653,18,17.702,-7233
23.661,69,17.708,-7175
23.669,82,17.714,-6948
23.677,69,17.72,-6839
23.684,27,17.725,-6613
23.692,-4,17.731,-6522
23.7,195,17.737,-6361
23.707,628,17.742,-6225
23.715,757,17.748,-6198
23.723,135,17.754,-6119
23.73,-559,17.759,-6004
23.738,-407,17.765,-5861
23.746,20,17.771,-5866
23.753,-23,17.776,-5769
23.761,-184,17.782,-5644
23.769,-184,17.788,-5687
23.777,-230,17.793,-5632
23.784,-280,17.799,-5523
23.792,-214,17.805,-5403
23.8,-168,17.81,-5479
23.807,-177,17.817,-5546
23.815,-122,17.823,-5349
23.823,-59,17.829,-5406
23.83,-62,17.835,-5240
23.838,-41,17.84,-5192
23.846,-9,17.846,-5131
23.853,4,17.852,-5018
23.861,43,17.857,-4958
23.869,85,17.863,-4792
23.877,105,17.869,-4844
23.884,85,17.874,-4752
23.892,-16,17.88,-4769
23.9,-112,17.886,-4668
23.907,-96,17.891,-4547
23.915,-87,17.897,-4356
23.923,-156,17.903,-4164
23.93,-214,17.908,-4145
23.938,-246,17.914,-3947
23.946,-274,17.92,-3860
23.953,-260,17.925,-3715
23.961,-244,17.931,-3609
23.969,-260,17.937,-3498
23.977,-274,17.942,-3516
23.984,-262,17.948,-3247
23.992,-221,17.954,-3021
24,-170,17.96,-2846
24.007,-154,17.965,-2791
24.015,-156,17.971,-2630
24.023,-135,17.977,-2499
24.03,-110,17.982,-2480
24.038,-82,17.988,-2327
24.046,-50,17.994,-2132
24.053,-20,17.999,-2096
24.061,-18,18.005,-1959
24.069,-80,18.011,-1933
24.077,-142,18.016,-1876
24.084,-108,18.022,-1923
24.092,-32,18.028,-1959
24.1,-6,18.033,-2139
24.107,0,18.039,-2425
24.115,16,18.045,-2476
24.123,25,18.05,-2833
24.131,43,18.056,-3196
24.138,73,18.062,-3466
24.146,73,18.067,-3844
24.154,46,18.073,-4206
24.161,-9,18.079,-4455
24.169,-62,18.086,-5040
24.177,-73,18.091,-5472
24.184,-96,18.097,-5621
24.192,-92,18.103,-5973
24.2,103,18.109,-6392
24.207,504,18.114,-6474
24.215,704,18.12,-6790
24.223,191,18.126,-7017
24.231,-481,18.131,-7459
24.238,-333,18.137,-7433
24.246,64,18.143,-7564
24.254,-34,18.148,-7529
24.261,-124,18.154,-7716
24.269,0,18.16,-7846
24.277,-27,18.165,-7643
24.284,-163,18.171,-7670
24.292,-200,18.177,-7655
24.3,-186,18.182,-7613
24.307,-170,18.188,-7553
24.315,-117,18.194,-7210
24.323,-57,18.199,-7223
24.331,-32,18.205,-7142
24.338,-36,18.211,-7065
24.346,-32,18.216,-6839
24.354,18,18.222,-6731
24.361,82,18.228,-6378
24.369,115,18.234,-6293
24.377,131,18.239,-5981
24.384,122,18.245,-5826
24.392,117,18.251,-5719
24.4,158,18.256,-5396
24.407,200,18.262,-5290
24.415,214,18.268,-5172
24.423,149,18.273,-5016
24.431,0,18.279,-4881
24.438,-78,18.285,-4670
24.446,-52,18.29,-4656
24.454,-73,18.296,-4612
24.461,-138,18.302,-4428
24.469,-170,18.307,-4362
24.477,-223,18.313,-4289
24.484,-274,18.319,-4417
24.492,-230,18.324,-4135
24.5,-172,18.33,-4235
24.507,-175,18.336,-4002
24.515,-179,18.343,-4082
24.523,-175,18.349,-3809
24.531,-172,18.354,-3844
24.538,-138,18.36,-3853
24.546,-101,18.366,-3715
24.554,-73,18.371,-3611
24.561,-62,18.377,-3585
24.569,-78,18.383,-3485
24.577,-69,18.388,-3420
24.584,-4,18.394,-3310
24.592,36,18.4,-3243
24.6,34,18.405,-3238
24.607,-13,18.411,-2968
24.615,-96,18.417,-3037
24.623,-115,18.422,-2845
24.631,-76,18.428,-2821
24.638,-48,18.434,-2638
24.646,-32,18.439,-2546
24.654,-25,18.445,-2411
24.662,-50,18.451,-2346
24.669,-92,18.456,-2086
24.677,-119,18.462,-2087
24.685,-94,18.468,-1920
24.692,80,18.474,-1795
24.7,449,18.479,-1604
24.708,677,18.485,-1425
24.715,237,18.491,-1218
24.723,-474,18.496,-1109
24.731,-423,18.502,-951
24.738,57,18.508,-872
24.746,34,18.513,-727
24.754,-158,18.519,-696
24.762,-69,18.525,-537
24.769,6,18.53,-419
24.777,-32,18.536,-293
24.785,-55,18.542,-203
24.792,-105,18.547,-85
24.8,-135,18.553,-253
24.808,-76,18.559,-372
24.815,-11,18.564,-346
24.823,29,18.57,-587
24.831,32,18.576,-727
24.838,-59,18.581,-992
24.846,-128,18.587,-1204
24.854,-73,18.593,-1582
24.862,-9,18.599,-1908
24.869,9,18.604,-2307
24.877,32,18.61,-2868
24.885,29,18.616,-3224
24.892,18,18.622,-3489
24.9,55,18.628,-3896
24.908,99,18.634,-4263
24.915,82,18.64,-4639
24.923,23,18.645,-4888
24.931,-6,18.651,-5286
24.938,-4,18.657,-5480
24.946,-4,18.662,-5869
24.954,-4,18.668,-5922
24.962,-27,18.674,-6119
24.969,-96,18.679,-6184
24.977,-163,18.685,-6481
24.985,-165,18.691,-6579
24.992,-131,18.696,-6565
25,-124,18.702,-6523
25.008,-152,18.708,-6511
25.015,-179,18.713,-6464
25.023,-209,18.719,-6459
25.031,-232,18.725,-6388
25.038,-211,18.73,-6332
25.046,-172,18.736,-6077
25.054,-154,18.742,-5977
25.062,-154,18.747,-5776
25.069,-149,18.753,-5759
25.077,-126,18.759,-5636
25.085,-87,18.765,-5403
25.092,-50,18.77,-5128
25.1,-41,18.776,-4865
25.108,-52,18.782,-4925
25.115,-48,18.787,-4604
25.123,-48,18.793,-4469
25.131,-57,18.799,-4216
25.138,-48,18.804,-4103
25.146,-69,18.81,-4037
25.154,-145,18.816,-3841
25.162,-232,18.821,-3829
25.169,-283,18.827,-3661
25.177,-158,18.833,-3445
25.185,218,18.838,-3515
25.192,561,18.844,-3470
25.2,290,18.85,-3336
25.208,-467,18.855,-3152
25.216,-624,18.861,-3171
25.223,-126,18.867,-3105
25.231,48,18.874,-3044
25.239,-66,18.88,-2919
25.246,-6,18.885,-2904
25.254,64,18.891,-2763
25.262,27,18.897,-2667
25.269,41,18.902,-2755
25.277,110,18.908,-2652
25.285,78,18.914,-2658
25.292,-9,18.919,-2501
25.3,-13,18.925,-2423
25.308,20,18.931,-2332
25.316,32,18.936,-2188
25.323,29,18.942,-2250
25.331,-55,18.948,-2095
25.339,-158,18.953,-1901
25.346,-119,18.959,-1750
25.354,-43,18.965,-1671
25.362,-32,18.97,-1590
25.369,-9,18.976,-1479
25.377,4,18.982,-1327
25.385,-27,18.988,-1184
25.392,-34,18.993,-1057
25.4,-11,18.999,-964
25.408,-36,19.005,-814
25.416,-92,19.01,-766
25.423,-117,19.016,-653
25.431,-112,19.022,-425
25.439,-105,19.027,-385
25.446,-119,19.033,-239
25.454,-126,19.039,-34
25.462,-96,19.044,107
25.469,-78,19.05,224
25.477,-69,19.056,464
25.485,-48,19.061,351
25.492,-39,19.067,627
25.5,-36,19.073,778
25.508,-16,19.078,831
25.516,9,19.084,875
25.523,34,19.09,950
25.531,62,19.095,1114
25.539,64,19.101,1022
25.546,34,19.107,1085
25.554,-29,19.113,1037
25.562,-108,19.118,966
25.569,-147,19.124,824
25.577,-142,19.13,591
25.585,-152,19.135,309
25.592,-154,19.141,54
25.6,-158,19.147,-274
25.608,-179,19.152,-592
25.616,-161,19.159,-779
25.623,-124,19.165,-1201
25.631,-117,19.171,-1532
25.639,-108,19.176,-2005
25.646,-128,19.182,-2413
25.654,-181,19.188,-2699
25.662,-62,19.193,-3000
25.669,327,19.199,-3341
25.677,561,19.205,-3534
25.685,32,19.21,-3749
25.692,-776,19.216,-4023
25.7,-711,19.222,-4074
25.708,-179,19.228,-4202
25.716,-128,19.233,-4311
25.723,-211,19.239,-4296
25.731,-99,19.245,-4371
25.739,-66,19.25,-4466
25.746,-96,19.256,-4454
25.754,-23,19.262,-4635
25.762,41,19.267,-4524
25.769,46,19.273,-4447
25.777,69,19.279,-4347
25.785,80,19.284,-4300
25.793,25,19.29,-4054
25.8,-25,19.296,-4063
25.808,4,19.301,-3827
25.816,43,19.307,-3743
25.824,16,19.313,-3606
25.831,-29,19.318,-3417
25.839,-6,19.324,-3162
25.847,34,19.33,-2981
25.854,43,19.335,-2849
25.862,43,19.341,-2638
25.87,-2,19.347,-2519
25.877,-57,19.353,-2404
25.885,-16,19.358,-2192
25.893,43,19.364,-2147
25.9,-2,19.37,-1914
25.908,-94,19.375,-1800
25.916,-156,19.381,-1552
25.924,-195,19.387,-1515
25.931,-204,19.392,-1341
25.939,-175,19.398,-1338
25.947,-161,19.404,-1263
25.954,-172,19.409,-1268
25.962,-165,19.415,-1154
25.97,-138,19.421,-956
25.977,-96,19.428,-954
25.985,-57,19.433,-938
25.993,-39,19.439,-876
26,-39,19.445,-873
26.008,-34,19.45,-669
26.016,-9,19.456,-663
26.024,9,19.462,-660
26.031,34,19.467,-502
26.039,66,19.473,-416
26.047,36,19.479,-352
26.054,-36,19.484,-207
26.062,-29,19.49,-164
26.07,39,19.496,-113
26.077,39,19.501,-150
26.085,-27,19.507,144
26.093,-78,19.513,242
26.1,-103,19.518,403
26.108,-133,19.524,398
26.116,-128,19.53,515
26.124,-101,19.536,774
26.131,-110,19.541,681
26.139,-62,19.547,796
26.147,211,19.553,971
26.154,584,19.558,1070
26.162,474,19.564,1069
26.17,-331,19.57,1243
26.177,-755,19.575,1422
26.185,-308,19.581,1503
26.193,-23,19.587,1601
26.2,-131,19.592,1717
26.208,-94,19.598,1881
26.216,4,19.604,2033
26.224,-27,19.609,2199
26.231,-119,19.615,2172
26.239,-145,19.621,2276
26.247,-76,19.626,2518
26.254,-6,19.632,2607
26.262,16,19.638,2739
26.27,36,19.643,2814
26.277,48,19.649,2938
26.285,57,19.655,3033
26.293,41,19.661,3298
26.3,-39,19.666,3322
26.308,-59,19.673,3313
26.316,4,19.679,3427
26.324,13,19.685,3359
26.331,9,19.69,3200
26.339,71,19.696,3108
26.347,131,19.702,2895
26.354,161,19.707,2698
26.362,172,19.713,2443
26.37,152,19.719,2337
26.377,131,19.724,2040
26.385,117,19.73,1511
26.393,71,19.736,1249
26.401,0,19.741,952
26.408,-108,19.747,666
26.416,-255,19.753,275
26.424,-290,19.758,30
26.431,-200,19.764,-344
26.439,-161,19.77,-605
26.447,-188,19.775,-889
26.454,-214,19.781,-1017
26.462,-221,19.787,-1207
26.47,-186,19.792,-1444
26.477,-124,19.798,-1367
26.485,-85,19.804,-1645
26.493,-62,19.81,-1608
26.501,-57,19.815,-1631
26.508,-62,19.821,-1734
26.516,-16,19.827,-1750
26.524,41,19.832,-1843
26.531,66,19.838,-1747
26.539,99,19.844,-1816
26.547,108,19.849,-1707
26.554,69,19.855,-1624
26.562,55,19.861,-1499
26.57,76,19.866,-1349
26.577,99,19.872,-1256
26.585,94,19.878,-933
26.593,29,19.883,-1014
26.601,-29,19.889,-860
26.608,-52,19.895,-701
26.616,-73,19.9,-525
26.624,29,19.906,-445
26.631,380,19.912,-313
26.639,677,19.917,-176
26.647,290,19.923,99
26.654,-564,19.929,157
26.662,-716,19.936,240
26.67,-188,19.942,362
26.677,-27,19.947,446
26.685,-170,19.953,519
26.693,-119,19.959,629
26.701,-39,19.964,808
26.708,-41,19.97,667
26.716,-11,19.976,758
26.724,25,19.981,766
26.731,9,19.987,897
26.739,-4,19.993,844
26.747,23,19.998,927
26.754,73,20.004,936
26.762,101,20.01,1045
26.77,71,20.015,1053
26.777,20,20.021,1000
26.785,32,20.027,1074
26.793,64,20.033,1093
26.801,23,20.038,1196
26.808,-36,20.044,1300
26.816,-20,20.05,1324
26.824,11,20.055,1397
26.831,18,20.061,1445
26.839,52,20.067,1464
26.847,99,20.072,1457
26.854,105,20.078,1549
26.862,89,20.084,1712
26.87,76,20.089,1766
26.877,52,20.095,1908
26.885,9,20.101,2002
26.893,-29,20.106,2163
26.901,-29,20.112,2241
26.908,-23,20.118,2298
26.916,-41,20.123,2346
26.924,-50,20.129,2381
26.932,-16,20.135,2489
26.939,36,20.14,2525
26.947,-4,20.146,2688
26.955,-145,20.152,2736
26.962,-234,20.158,2948
26.97,-225,20.163,3053
26.978,-191,20.169,3253
26.985,-163,20.175,3187
26.993,-142,20.18,3343
27.001,-117,20.186,3383
27.008,-92,20.192,3553
27.016,-66,20.197,3706
27.024,-23,20.203,3741
27.032,20,20.21,3877
27.039,23,20.216,3995
27.047,16,20.221,3990
27.055,25,20.227,4084
27.062,41,20.233,4235
27.07,59,20.238,4115
27.078,82,20.244,4263
27.085,94,20.25,4492
27.093,76,20.255,4469
27.101,41,20.261,4342
27.108,122,20.267,4176
27.116,474,20.272,3995
27.124,905,20.278,3836
27.132,727,20.284,3649
27.139,-163,20.289,3406
27.147,-626,20.295,3163
27.155,-244,20.301,2956
27.162,-6,20.306,2647
27.17,-161,20.312,2165
27.178,-221,20.318,1985
27.185,-193,20.324,1640
27.193,-200,20.329,1348
27.201,-184,20.335,1009
27.208,-140,20.341,805
27.216,-112,20.346,630
27.224,-103,20.352,400
27.232,-76,20.358,275
27.239,-39,20.363,98
27.247,-23,20.369,-18
27.255,2,20.375,-172
27.262,39,20.38,-227
27.27,43,20.386,-264
27.278,48,20.392,-395
27.285,85,20.397,-355
27.293,110,20.403,-314
27.301,71,20.409,-218
27.308,-50,20.414,-324
27.316,-140,20.42,-297
27.324,-96,20.426,-164
27.332,-39,20.431,-126
27.339,-41,20.437,-27
27.347,-36,20.443,97
27.355,-29,20.449,261
27.362,-46,20.456,315
27.37,-46,20.461,573
27.378,-69,20.467,560
27.385,-133,20.473,707
27.393,-138,20.478,940
27.401,-94,20.484,913
27.408,-69,20.49,1188
27.416,-34,20.495,1247
27.424,6,20.501,1333
27.432,25,20.507,1411
27.439,36,20.512,1492
27.447,43,20.518,1585
27.455,43,20.524,1659
27.462,64,20.529,1773
27.47,73,20.535,1824
27.478,36,20.541,1980
27.486,-4,20.546,1966
27.493,-62,20.552,2059
27.501,-94,20.558,1960
27.509,-43,20.564,2083
27.516,2,20.569,1912
27.524,-2,20.575,2049
27.532,-23,20.581,2102
27.539,-80,20.586,2104
27.547,-108,20.592,2092
27.555,-69,20.598,2175
27.562,-48,20.603,2188
27.57,-57,20.609,2281
27.578,-48,20.615,2287
27.586,-18,20.62,2341
27.593,6,20.626,2412
27.601,9,20.632,2423
27.609,32,20.637,2622
27.616,244,20.643,2666
27.624,640,20.649,2805
27.632,753,20.654,2841
27.639,133,20.66,2832
27.647,-566,20.666,2839
27.655,-435,20.671,2747
27.662,-76,20.677,3021
27.67,-204,20.683,3082
27.678,-347,20.689,3254
27.686,-234,20.694,3166
27.693,-175,20.7,3342
27.701,-198,20.706,3407
27.709,-177,20.711,3448
27.716,-149,20.717,3575
27.724,-133,20.724,3630
27.732,-82,20.729,3816
27.739,-29,20.735,3717
27.747,-6,20.741,3976
27.755,4,20.747,3917
27.762,13,20.752,4023
27.77,46,20.758,4251
27.778,96,20.764,4252
27.786,145,20.769,4302
27.793,170,20.775,4417
27.801,152,20.781,4550
27.809,69,20.786,4621
27.816,6,20.792,4660
27.824,48,20.798,4538
27.832,108,20.803,4578
27.839,112,20.809,4663
27.847,62,20.815,4712
27.855,-20,20.82,4643
27.862,-52,20.826,4583
27.87,-62,20.832,4383
27.878,-112,20.837,4192
27.886,-133,20.843,4122
27.893,-122,20.849,4009
27.901,-117,20.854,3676
27.909,-78,20.86,3311
27.916,-23,20.866,2960
27.924,6,20.872,2704
27.932,32,20.877,2500
27.939,32,20.883,2167
27.947,20,20.889,1944
27.955,52,20.894,1566
27.962,96,20.9,1417
27.97,101,20.906,1142
27.978,46,20.911,937
27.986,-66,20.917,672
27.993,-145,20.923,507
28.001,-105,20.928,442
28.009,-50,20.934,326
28.016,-32,20.94,290
28.024,-9,20.945,207
28.032,-9,20.951,-22
28.04,-9,20.957,-43
28.047,41,20.964,-2
28.055,76,20.969,109
28.063,78,20.975,79
28.07,50,20.981,229
28.078,-41,20.987,156
28.086,-92,20.992,172
28.093,-36,20.998,302
28.101,9,21.004,473
28.109,13,21.009,638
28.117,-23,21.015,660
28.124,-66,21.021,859
28.132,101,21.026,996
28.14,502,21.032,1101
28.147,677,21.038,1151
28.155,124,21.043,1229
28.163,-693,21.049,1399
28.17,-739,21.055,1511
28.178,-297,21.06,1678
28.186,-232,21.066,1677
28.193,-310,21.072,1782
28.201,-214,21.077,1907
28.209,-184,21.083,2013
28.217,-239,21.089,2042
28.224,-195,21.094,2174
28.232,-117,21.1,2249
28.24,-94,21.106,2185
28.247,-62,21.112,2273
28.255,-41,21.117,2326
28.263,-52,21.123,2293
28.27,-20,21.129,2475
28.278,43,21.134,2406
28.286,85,21.14,2393
28.293,115,21.146,2540
28.301,126,21.151,2627
28.309,103,21.157,2682
28.317,48,21.163,2716
28.324,-6,21.168,2762
28.332,6,21.174,2807
28.34,11,21.18,2799
28.347,-76,21.185,2819
28.355,-128,21.191,2899
28.363,-115,21.197,2995
28.37,-135,21.202,2931
28.378,-152,21.208,3149
28.386,-131,21.214,3181
28.393,-145,21.219,3409
28.401,-170,21.225,3302
28.409,-147,21.231,3620
28.417,-103,21.237,3512
28.424,-66,21.243,3605
28.432,-34,21.249,3701
28.44,-32,21.255,3896
28.447,-36,21.26,3983
28.455,-4,21.266,4139
28.463,16,21.272,4076
28.47,-9,21.277,4193
28.478,-25,21.283,4115
28.486,-23,21.289,4224
28.493,-20,21.294,4278
28.501,-9,21.3,4489
28.509,23,21.306,4595
28.517,23,21.312,4623
28.524,-50,21.317,4711
28.532,-135,21.323,4741
28.54,-133,21.329,5012
28.547,-80,21.334,5075
28.555,-41,21.34,5026
28.563,-9,21.346,5010
28.57,18,21.351,4970
28.578,27,21.357,5116
28.586,43,21.363,5161
28.594,66,21.368,5200
28.601,76,21.374,4855
28.609,41,21.38,4797
28.617,-16,21.385,4696
28.624,-41,21.391,4456
28.632,-57,21.397,4215
28.64,-82,21.402,3948
28.647,-89,21.408,3787
28.655,-156,21.414,3439
28.663,-228,21.419,3137
28.671,-39,21.425,2898
28.678,405,21.431,2636
28.686,568,21.437,2454
28.694,-48,21.442,2181
28.701,-799,21.448,2052
28.709,-704,21.454,1855
28.717,-287,21.459,1735
28.724,-280,21.465,1479
28.732,-315,21.471,1363
28.74,-198,21.476,1248
28.747,-165,21.483,1215
28.755,-181,21.489,1213
28.763,-138,21.495,1192
28.771,-96,21.5,1273
28.778,-73,21.506,1276
28.786,-25,21.512,1187
28.794,18,21.517,1099
28.801,32,21.523,1248
28.809,62,21.529,1218
28.817,57,21.534,1495
28.824,-13,21.54,1524
28.832,-41,21.546,1673
28.84,9,21.551,1772
28.847,25,21.557,1866
28.855,-9,21.563,2107
28.863,-39,21.568,2088
28.871,-20,21.574,2185
28.878,-4,21.58,2368
28.886,-48,21.585,2448
28.894,-76,21.591,2450
28.901,-32,21.597,2765
28.909,-4,21.602,2808
28.917,-13,21.608,3008
28.924,-4,21.614,3058
28.932,-9,21.62,3159
28.94,-34,21.625,3187
28.947,-46,21.631,3177
28.955,-78,21.637,3359
28.963,-94,21.642,3326
28.971,-62,21.648,3491
28.978,-46,21.654,3463
28.986,-43,21.659,3458
28.994,-20,21.665,3678
29.001,0,21.671,3652
29.009,23,21.676,3777
29.017,46,21.682,3755
29.024,46,21.688,3809
29.032,64,21.693,3784
29.04,99,21.699,3879
29.047,96,21.705,3858
29.055,78,21.71,4034
29.063,48,21.716,3968
29.071,-6,21.722,4038
29.078,-11,21.729,4153
29.086,29,21.734,4159
29.094,39,21.74,4091
29.101,2,21.746,4146
29.109,-39,21.751,4141
29.117,-62,21.757,4317
29.124,-64,21.763,4343
29.132,-71,21.769,4385
29.14,-105,21.774,4406
29.148,-128,21.78,4624
29.155,-131,21.786,4561
29.163,-142,21.791,4605
29.171,-128,21.797,4727
29.178,-101,21.803,4636
29.186,-101,21.808,4877
29.194,-122,21.814,4936
29.202,-175,21.82,5054
29.209,-234,21.825,5140
29.217,-142,21.831,5281
29.225,179,21.837,5280
29.232,594,21.842,5287
29.24,596,21.848,5333
29.248,-209,21.854,5408
29.255,-891,21.859,5581
29.263,-543,21.865,5569
29.271,-108,21.871,5704
29.278,-193,21.876,5707
29.286,-209,21.882,5779
29.294,-85,21.888,5931
29.302,-73,21.894,5937
29.309,-59,21.899,5934
29.317,-34,21.905,5956
29.325,-117,21.911,5960
29.332,-179,21.916,5827
29.34,-135,21.922,5651
29.348,-115,21.928,5570
29.355,-138,21.933,5471
29.363,-108,21.939,5219
29.371,-52,21.945,4959
29.378,-36,21.95,4936
29.386,-20,21.956,4655
29.394,36,21.962,4378
29.402,92,21.967,4216
29.409,108,21.973,3932
29.417,99,21.979,3713
29.425,50,21.986,3533
29.432,-32,21.991,3303
29.44,-55,21.997,3119
29.448,-6,22.003,2998
29.455,13,22.008,2886
29.463,-18,22.014,2830
29.471,-50,22.02,2792
29.478,-62,22.026,2496
29.486,-55,22.031,2488
29.494,-34,22.037,2429
29.502,-36,22.043,2483
29.509,-69,22.048,2482
29.517,-78,22.054,2376
29.525,-48,22.06,2497
29.532,-6,22.065,2449
29.54,29,22.071,2515
29.548,59,22.077,2604
29.555,64,22.082,2693
29.563,59,22.088,2740
29.571,82,22.094,2745
29.578,117,22.099,2881
29.586,124,22.105,3053
29.594,69,22.111,3186
29.602,-64,22.116,3111
29.609,-181,22.122,3213
29.617,-216,22.128,3493
29.625,-218,22.133,3482
29.632,-209,22.139,3566
29.64,-191,22.145,3672
29.648,-198,22.151,3900
29.655,-214,22.156,3935
29.663,-184,22.162,3852
29.671,-126,22.168,3839
29.678,-92,22.173,4047
29.686,-76,22.179,4062
29.694,-80,22.185,4176
29.702,-94,22.19,4236
29.709,-78,22.196,4205
29.717,-50,22.202,4087
29.725,-32,22.207,4204
29.733,-32,22.213,4239
29.74,-101,22.219,4302
29.748,-188,22.224,4279
29.756,-170,22.23,4389
29.763,-122,22.236,4323
29.771,-55,22.241,4286
29.779,221,22.248,4450
29.786,610,22.254,4407
29.794,605,22.26,4404
29.802,-105,22.265,4440
29.809,-707,22.271,4546
29.817,-432,22.277,4644
29.825,-145,22.282,4632
29.833,-350,22.288,4590
29.84,-409,22.294,4714
29.848,-292,22.299,4848
29.856,-278,22.305,4830
29.863,-246,22.311,4912
29.871,-177,22.317,4942
29.879,-165,22.322,5050
29.886,-133,22.328,5194
29.894,-52,22.334,5117
29.902,-2,22.339,5203
29.909,29,22.345,5273
29.917,23,22.351,5205
29.925,-20,22.356,5368
29.933,-4,22.362,5348
29.94,48,22.368,5407
29.948,66,22.373,5403
29.956,92,22.379,5527
29.963,71,22.385,5604
29.971,-13,22.39,5847
29.979,-13,22.396,5761
29.986,69,22.402,5739
29.994,105,22.407,5835
30.002,119,22.413,5946
30.009,124,22.419,5897
30.017,92,22.424,5996
30.025,71,22.43,5909
30.033,82,22.436,6107
30.04,80,22.442,6151
30.048,73,22.447,6015
30.056,57,22.453,6115
30.063,25,22.459,5866
30.071,23,22.464,5818
30.079,25,22.47,5665
30.086,-29,22.476,5438
30.094,-99,22.481,5234
30.102,-145,22.487,5175
30.109,-181,22.494,4920
30.117,-191,22.5,4707
30.125,-168,22.505,4605
30.133,-140,22.511,4401
30.14,-145,22.517,4172
30.148,-211,22.522,4018
30.156,-257,22.528,3853
30.163,-209,22.534,3654
30.171,-152,22.539,3464
30.179,-135,22.545,3226
30.186,-122,22.551,3112
30.194,-117,22.556,3018
30.202,-122,22.562,3160
30.209,-92,22.568,2937
30.217,-39,22.573,2917
30.225,-4,22.579,2958
30.233,11,22.585,2918
30.24,9,22.591,3132
30.248,20,22.596,3059
30.256,69,22.602,3136
30.263,122,22.608,3112
30.271,156,22.613,3267
30.279,161,22.619,3348
30.287,138,22.625,3465
30.294,105,22.63,3560
30.302,101,22.636,3607
30.31,131,22.642,3942
30.317,156,22.647,4062
30.325,101,22.653,4023
30.333,-27,22.659,4113
30.34,-108,22.664,4097
30.348,-20,22.67,4274
30.356,292,22.676,4497
30.363,732,22.681,4559
30.371,771,22.687,4552
30.379,-23,22.693,4590
30.387,-778,22.698,4780
30.394,-550,22.704,4850
30.402,-140,22.71,4874
30.41,-209,22.716,4915
30.417,-253,22.721,4859
30.425,-156,22.727,4961
30.433,-154,22.733,4930
30.44,-138,22.738,5024
30.448,-55,22.744,4911
30.456,-20,22.75,5114
30.463,-18,22.756,5040
30.471,2,22.762,5209
30.479,0,22.768,5182
30.487,16,22.774,5244
30.494,76,22.779,5135
30.502,78,22.785,5150
30.51,16,22.791,5291
30.517,6,22.796,5333
30.525,55,22.802,5298
30.533,99,22.808,5383
30.54,140,22.813,5272
30.548,177,22.819,5191
30.556,186,22.825,5388
30.563,158,22.83,5440
30.571,117,22.836,5450
30.579,69,22.842,5423
30.587,0,22.847,5553
30.594,-57,22.853,5435
30.602,-89,22.859,5563
30.61,-112,22.864,5583
30.617,-140,22.87,5654
30.625,-149,22.876,5639
30.633,-138,22.881,5752
30.64,-140,22.887,5758
30.648,-154,22.893,5795
30.656,-156,22.899,5829
30.663,-158,22.904,5906
30.671,-138,22.91,5985
30.679,-110,22.916,6068
30.687,-149,22.921,6196
30.694,-186,22.927,6254
30.702,-147,22.933,6200
30.71,-108,22.938,6282
30.717,-96,22.944,6376
30.725,-76,22.95,6429
30.733,-52,22.955,6458
30.74,-29,22.961,6528
30.748,0,22.967,6456
30.756,13,22.972,6571
30.763,29,22.978,6554
30.771,64,22.984,6357
30.779,78,22.989,6459
30.787,80,22.996,6365
30.794,112,23.002,6142
30.802,131,23.008,5974
30.81,145,23.013,5755
30.817,177,23.019,5732
30.825,158,23.025,5378
30.833,34,23.03,5306
30.841,-92,23.036,5121
30.848,-87,23.042,5011
30.856,-41,23.048,4863
30.864,-78,23.053,4692
30.871,-124,23.059,4626
30.879,-87,23.065,4544
30.887,-64,23.07,4408
30.894,-94,23.076,4128
30.902,-94,23.082,4218
30.91,-133,23.087,4168
30.918,-221,23.093,4015
30.925,-211,23.099,4023
30.933,-147,23.104,3939
30.941,-138,23.11,4041
30.948,-133,23.116,4048
30.956,-103,23.121,4028
30.964,-82,23.127,4055
30.971,-55,23.133,4140
30.979,78,23.138,4181
30.987,428,23.144,4291
30.994,856,23.15,4389
31.002,769,23.155,4462
31.01,-46,23.161,4800
31.018,-543,23.167,4612
31.025,-154,23.173,4777
31.033,145,23.178,4742
31.041,-13,23.184,4761
31.048,-103,23.19,4814
31.056,-78,23.195,4657
31.064,-99,23.201,4937
31.071,-161,23.207,5057
31.079,-225,23.212,5012
31.087,-228,23.218,5131
31.094,-198,23.224,5133
31.102,-175,23.229,5157
31.11,-131,23.235,5121
31.118,-96,23.241,5100
31.125,-85,23.246,5192
31.133,-69,23.252,5228
31.141,-41,23.259,5211
31.148,2,23.265,5196
31.156,59,23.27,5407
31.164,94,23.276,5311
31.171,105,23.282,5311
31.179,110,23.287,5307
31.187,112,23.293,5339
31.194,135,23.299,5275
31.202,170,23.304,5308
31.21,193,23.31,5407
31.218,179,23.316,5300
31.225,94,23.321,5348
31.233,-6,23.327,5253
31.241,-13,23.333,5293
31.248,16,23.338,5430
31.256,0,23.344,5304
31.264,-25,23.35,5426
31.271,-29,23.355,5431
31.279,-20,23.361,5446
31.287,2,23.367,5333
31.294,41,23.373,5373
31.302,64,23.378,5531
31.31,64,23.384,5515
31.318,46,23.39,5530
31.325,18,23.395,5615
31.333,4,23.401,5643
31.341,-48,23.407,5696
31.348,-122,23.412,5669
31.356,-119,23.418,5767
31.364,-99,23.424,5904
31.371,-94,23.429,5903
31.379,-64,23.435,5959
31.387,-50,23.441,5874
31.395,-82,23.446,5941
31.402,-138,23.452,5952
31.41,-195,23.458,5976
31.418,-193,23.463,6069
31.425,-140,23.469,6035
31.433,-103,23.475,6190
31.441,-101,23.48,6186
31.448,-147,23.486,6122
31.456,-218,23.492,6213
31.464,-209,23.499,6093
31.472,-135,23.505,6034
31.479,-94,23.51,5962
31.487,-78,23.516,5920
31.495,-82,23.522,5704
31.502,-92,23.527,5577
31.51,-50,23.533,5448
31.518,0,23.539,5289
31.525,32,23.544,5095
31.533,73,23.55,5031
31.541,69,23.556,4829
31.548,23,23.561,4754
31.556,0,23.567,4470
31.564,-41,23.573,4428
31.572,-128,23.578,4248
31.579,-216,23.584,4133
31.587,-294,23.59,4030
31.595,-331,23.595,3751
31.602,-285,23.601,3726
31.61,-232,23.607,3792
31.618,-209,23.613,3864
31.625,-200,23.618,3749
31.633,-110,23.624,3643
31.641,237,23.63,3629
31.648,702,23.635,3745
31.656,642,23.641,3710
31.664,-152,23.647,3744
31.672,-642,23.652,3820
31.679,-283,23.658,3777
31.687,9,23.664,3858
31.695,-78,23.669,3964
31.702,-39,23.675,4044
31.71,73,23.681,4212
31.718,43,23.686,4081
31.725,-6,23.692,4228
31.733,32,23.698,4337
31.741,92,23.703,4299
31.748,119,23.709,4361
31.756,149,23.715,4508
31.764,124,23.72,4517
31.772,34,23.726,4543
31.779,34,23.732,4614
31.787,119,23.738,4549
31.795,170,23.743,4569
31.802,195,23.749,4647
31.81,200,23.755,4683
31.818,177,23.76,4817
31.825,186,23.766,4713
31.833,234,23.772,4858
31.841,221,23.777,4755
31.848,133,23.784,4822
31.856,80,23.79,4688
31.864,94,23.796,4678
31.872,112,23.801,4770
31.879,131,23.807,4631
31.887,147,23.813,4773
31.895,140,23.818,4739
31.902,66,23.824,4696
31.91,-29,23.83,4857
31.918,-50,23.835,4762
31.925,-13,23.841,4849
31.933,0,23.847,4728
31.941,-23,23.852,4801
31.948,-92,23.858,4768
31.956,-138,23.864,4740
31.964,-103,23.869,4664
31.972,-48,23.875,4718
31.979,-20,23.881,4738
31.987,-11,23.886,4771
31.995,-13,23.892,4716
32.003,-16,23.898,4755
32.01,6,23.904,4777
32.018,43,23.909,4824
32.026,64,23.915,4774
32.033,36,23.921,4846
32.041,-46,23.926,4887
32.049,-85,23.932,4944
32.056,-80,23.938,4964
32.064,-117,23.943,5056
32.072,-170,23.949,5133
32.079,-251,23.955,4947
32.087,-356,23.96,5086
32.095,-389,23.966,5172
32.103,-347,23.972,5203
32.11,-310,23.977,5194
32.118,-285,23.983,5135
32.126,-269,23.989,5179
32.133,-262,23.994,5033
32.141,-251,24,5063
32.149,-216,24.006,5048
32.156,-177,24.011,5135
32.164,-149,24.017,4939
32.172,-133,24.023,4790
32.179,-119,24.03,4592
32.187,-96,24.036,4496
32.195,-52,24.041,4286
32.203,4,24.047,3983
32.21,39,24.053,3866
32.218,41,24.058,3764
32.226,46,24.064,3616
32.233,55,24.07,3361
32.241,55,24.075,3181
32.249,76,24.081,2947
32.256,66,24.087,2878
32.264,-23,24.093,2870
32.272,-66,24.098,2672
32.279,-29,24.104,2536
32.287,25,24.11,2449
32.295,244,24.115,2385
32.303,677,24.121,2373
32.31,918,24.127,2372
32.318,421,24.132,2342
32.326,-396,24.138,2270
32.333,-416,24.144,2311
32.341,48,24.149,2296
32.349,20,24.155,2305
32.356,-152,24.161,2460
32.364,-29,24.166,2512
32.372,36,24.172,2536
32.379,0,24.178,2536
32.387,57,24.183,2611
32.395,110,24.189,2711
32.403,94,24.195,2701
32.41,117,24.2,2910
32.418,158,24.206,2944
32.426,170,24.212,3029
32.433,170,24.218,3007
32.441,108,24.223,3214
32.449,25,24.229,3097
32.456,39,24.235,3275
32.464,82,24.24,3258
32.472,103,24.246,3181
32.479,131,24.252,3330
32.487,147,24.257,3342
32.495,163,24.263,3478
32.503,188,24.269,3418
32.51,198,24.274,3445
32.518,207,24.28,3459
32.526,225,24.286,3564
32.533,225,24.291,3582
32.541,209,24.297,3585
32.549,154,24.303,3579
32.557,69,24.308,3543
32.564,36,24.314,3523
32.572,13,24.32,3700
32.58,-64,24.327,3630
32.587,-101,24.332,3573
32.595,-64,24.338,3769
32.603,-62,24.344,3797
32.61,-117,24.349,3673
32.618,-198,24.355,3744
32.626,-297,24.361,3822
32.633,-336,24.366,3882
32.641,-301,24.372,3918
32.649,-276,24.378,3922
32.657,-264,24.384,3990
32.664,-246,24.389,4034
32.672,-239,24.395,4051
32.68,-207,24.401,4163
32.687,-170,24.406,4111
32.695,-163,24.412,4234
32.703,-152,24.418,4148
32.71,-131,24.423,4316
32.718,-117,24.429,4270
32.726,-89,24.435,4278
32.733,-55,24.44,4245
32.741,-48,24.446,4412
32.749,-41,24.452,4397
32.757,-16,24.457,4425
32.764,2,24.463,4567
32.772,23,24.469,4531
32.78,50,24.474,4619
32.787,46,24.48,4624
32.795,-18,24.486,4686
32.803,-133,24.491,4777
32.81,-172,24.497,4737
32.818,-105,24.503,4771
32.826,-69,24.509,4775
32.833,-59,24.514,4657
32.841,-36,24.52,4491
32.849,-87,24.526,4422
32.857,-152,24.531,4149
32.864,-103,24.537,4039
32.872,-46,24.543,3931
32.88,-62,24.548,3741
32.887,-62,24.554,3490
32.895,-34,24.56,3360
32.903,-6,24.565,3020
32.91,39,24.571,3100
32.918,76,24.578,2874
32.926,85,24.584,2848
32.933,76,24.589,2612
32.941,128,24.595,2538
32.949,414,24.601,2332
32.957,898,24.606,2179
32.964,1073,24.612,2272
32.972,419,24.618,2217
32.98,-389,24.623,2264
32.987,-274,24.629,2176
32.995,175,24.635,2240
33.003,122,24.64,2201
33.01,25,24.646,2336
33.018,108,24.652,2334
33.026,41,24.658,2355
33.033,-64,24.663,2530
33.041,-36,24.669,2546
33.049,-23,24.675,2719
33.057,-50,24.68,2727
33.064,-34,24.686,2914
33.072,-4,24.692,3132
33.08,18,24.697,3196
33.087,62,24.703,3289
33.095,110,24.709,3281
33.103,140,24.714,3419
33.111,131,24.72,3431
33.118,78,24.726,3558
33.126,59,24.731,3575
33.134,124,24.737,3685
33.141,184,24.743,3818
33.149,172,24.748,3787
33.157,101,24.754,3934
33.164,-4,24.76,3855
33.172,-46,24.765,3860
33.18,-29,24.771,4063
33.187,-55,24.777,3828
33.195,-87,24.783,3997
33.203,-117,24.788,3918
33.211,-168,24.794,4010
33.218,-179,24.8,4011
33.226,-152,24.805,4030
33.234,-140,24.811,3989
33.241,-156,24.817,4000
33.249,-179,24.822,4106
33.257,-168,24.828,3938
33.264,-131,24.834,4030
33.272,-94,24.84,4047
33.28,-66,24.846,4101
33.287,-82,24.852,4043
33.295,-145,24.858,4038
33.303,-156,24.863,4136
33.311,-99,24.869,4073
33.318,-62,24.875,4193
33.326,-55,24.88,4083
33.334,-71,24.886,4140
33.341,-133,24.892,4059
33.349,-195,24.897,4040
33.357,-218,24.903,4177
33.364,-251,24.909,4151
33.372,-237,24.914,4251
33.38,-188,24.92,4280
33.387,-195,24.926,4281
33.395,-175,24.931,4215
33.403,-99,24.937,4264
33.411,-52,24.943,4382
33.418,-25,24.948,4353
33.426,-2,24.954,4329
33.434,-6,24.96,4447
33.441,-4,24.965,4497
33.449,43,24.971,4415
33.457,92,24.977,4311
33.464,122,24.983,4515
33.472,142,24.988,4458
33.48,149,24.994,4539
33.487,172,25,4325
33.495,211,25.005,4177
33.503,225,25.011,4072
33.511,214,25.017,3880
33.518,158,25.022,3839
33.526,59,25.028,3465
33.534,6,25.034,3387
33.541,-2,25.039,3192
33.549,-23,25.045,3081
33.557,-36,25.051,2791
33.564,-57,25.056,2515
33.572,-2,25.062,2340
33.58,333,25.068,2272
33.587,836,25.075,2059
33.595,870,25.081,1777
33.603,87,25.086,1715
33.611,-578,25.092,1555
33.618,-283,25.098,1515
33.626,112,25.103,1478
33.634,41,25.109,1467
33.642,39,25.115,1402
33.649,156,25.12,1291
33.657,126,25.126,1264
33.665,82,25.132,1303
33.672,145,25.137,1259
33.68,186,25.143,1267
33.688,181,25.149,1217
33.695,158,25.154,1347
33.703,34,25.16,1335
33.711,-108,25.166,1285
33.718,-112,25.171,1424
33.726,-57,25.177,1540
33.734,-62,25.183,1532
33.742,-101,25.188,1613
33.749,-110,25.194,1628
33.757,-89,25.2,1768
33.765,-62,25.206,1826
33.772,-29,25.211,1806
33.78,-29,25.217,1835
33.788,-82,25.223,1848
33.795,-112,25.228,1944
33.803,-92,25.234,1936
33.811,-69,25.24,1941
33.818,-46,25.245,1933
33.826,-29,25.251,1984
33.834,-57,25.257,2010
33.842,-115,25.262,2024
33.849,-140,25.268,2091
33.857,-154,25.274,1969
33.865,-230,25.279,1997
33.872,-333,25.285,2040
33.88,-373,25.291,2081
33.888,-391,25.296,2094
33.895,-382,25.302,2207
33.903,-315,25.308,2072
33.911,-239,25.313,2096
33.918,-198,25.319,2138
33.926,-186,25.325,2249
33.934,-172,25.331,2053
33.942,-135,25.336,2018
33.949,-96,25.342,2040
33.957,-55,25.348,1970
33.965,-20,25.353,2141
33.972,0,25.359,2147
33.98,9,25.366,2058
33.988,11,25.372,2229
33.995,46,25.377,2173
34.003,101,25.383,2258
34.011,119,25.389,2189
34.018,105,25.394,2482
34.026,71,25.4,2436
34.034,25,25.406,2441
34.042,23,25.411,2550
34.049,57,25.417,2551
34.057,27,25.423,2542
34.065,-48,25.428,2554
34.072,-46,25.434,2548
34.08,16,25.44,2589
34.088,64,25.446,2719
34.095,103,25.451,2828
34.103,122,25.457,2874
34.111,110,25.463,2809
34.118,96,25.468,2830
34.126,62,25.474,2772
34.134,41,25.48,2864
34.142,59,25.485,2725
34.149,64,25.491,2737
34.157,57,25.497,2557
34.165,57,25.502,2414
34.172,92,25.508,2211
34.18,320,25.514,2017
34.188,789,25.519,1798
34.195,1070,25.525,1563
34.203,522,25.531,1375
34.211,-396,25.536,1088
34.219,-453,25.542,957
34.226,55,25.548,782
34.234,122,25.553,551
34.242,-36,25.559,411
34.249,-4,25.565,211
34.257,36,25.571,88
34.265,2,25.576,-83
34.273,-2,25.582,-203
34.28,-32,25.588,-377
34.288,-140,25.593,-541
34.296,-211,25.599,-552
34.303,-188,25.605,-494
34.311,-200,25.61,-451
34.319,-241,25.616,-502
34.326,-225,25.622,-546
34.334,-193,25.627,-509
34.342,-170,25.633,-332
34.349,-133,25.639,-290
34.357,-108,25.646,-312
34.365,-145,25.652,-355
34.373,-225,25.657,-299
34.38,-246,25.663,-256
34.388,-204,25.669,-265
34.396,-202,25.674,-68
34.403,-214,25.68,14
34.411,-175,25.686,74
34.419,-175,25.691,111
34.426,-248,25.697,90
34.434,-264,25.703,18
34.442,-228,25.708,111
34.449,-237,25.714,313
34.457,-253,25.72,266
34.465,-230,25.725,321
34.473,-207,25.731,378
34.48,-177,25.737,209
34.488,-133,25.742,317
34.496,-105,25.748,224
34.503,-101,25.754,415
34.511,-103,25.759,299
34.519,-105,25.765,280
34.526,-119,25.771,288
34.534,-122,25.777,192
34.542,-92,25.782,351
34.549,-55,25.788,214
34.557,-43,25.794,254
34.565,-39,25.799,307
34.573,-11,25.805,330
34.58,-4,25.811,182
34.588,-6,25.816,203
34.596,-4,25.822,221
34.603,-43,25.828,137
34.611,-73,25.833,235
34.619,-29,25.839,181
34.626,13,25.845,201
34.634,16,25.85,178
34.642,25,25.856,238
34.649,43,25.862,267
34.657,57,25.867,253
34.665,99,25.873,303
34.673,147,25.879,233
34.68,168,25.884,195
34.688,175,25.89,273
34.696,179,25.896,400
34.703,188,25.902,516
34.711,207,25.907,404
34.719,211,25.913,599
34.726,200,25.919,568
34.734,198,25.924,501
34.742,202,25.93,478
34.749,188,25.936,550
34.757,133,25.943,689
34.765,69,25.948,782
34.773,149,25.954,898
34.78,469,25.96,734
34.788,771,25.965,683
34.796,442,25.971,517
34.803,-462,25.977,475
34.811,-741,25.982,454
34.819,-237,25.988,337
34.827,-94,25.994,148
34.834,-278,25.999,-74
34.842,-188,26.005,-345
34.85,-78,26.011,-584
34.857,-122,26.016,-844
34.865,-140,26.022,-1069
34.873,-163,26.028,-1493
34.88,-200,26.033,-1591
34.888,-147,26.039,-1765
34.896,-71,26.045,-2067
34.903,-52,26.051,-2211
34.911,-62,26.056,-2428
34.919,-85,26.062,-2614
34.927,-112,26.068,-2799
34.934,-124,26.073,-2742
34.942,-128,26.079,-2913
34.95,-142,26.085,-2765
34.957,-188,26.09,-2968
34.965,-262,26.096,-2948
34.973,-267,26.102,-2894
34.98,-202,26.107,-2894
34.988,-179,26.113,-2869
34.996,-172,26.119,-2756
35.003,-140,26.124,-2586
35.011,-135,26.13,-2460
35.019,-184,26.136,-2320
35.027,-207,26.141,-2241
35.034,-186,26.147,-2063
35.042,-191,26.153,-1843
35.05,-228,26.158,-1666
35.057,-246,26.164,-1591
35.065,-211,26.17,-1406
35.073,-154,26.176,-1236
35.08,-117,26.181,-1171
35.088,-115,26.187,-1020
35.096,-128,26.193,-809
35.103,-124,26.198,-725
35.111,-101,26.205,-611
35.119,-66,26.211,-461
35.127,-29,26.217,-346
35.134,-27,26.222,-291
35.142,-99,26.228,-219
35.15,-149,26.234,-44
35.157,-96,26.239,127
35.165,-32,26.245,148
35.173,-16,26.251,270
35.18,-11,26.256,382
35.188,-25,26.262,503
35.196,-13,26.268,637
35.203,43,26.273,648
35.211,76,26.279,781
35.219,82,26.285,1015
35.227,94,26.29,933
35.234,101,26.296,924
35.242,119,26.302,1069
35.25,163,26.308,1280
35.257,177,26.313,1395
35.265,126,26.319,1499
35.273,76,26.325,1624
35.28,50,26.33,1693
35.288,36,26.336,1856
35.296,62,26.342,1935
35.303,103,26.347,2058
35.311,115,26.353,2168
35.319,62,26.359,2210
35.327,-34,26.364,2408
35.334,-27,26.37,2418
35.342,239,26.376,2564
35.35,713,26.381,2587
35.358,974,26.387,2668
35.365,393,26.393,2854
35.373,-564,26.398,2900
35.381,-633,26.404,3077
35.388,-119,26.41,3120
35.396,-29,26.415,3291
35.404,-126,26.421,3166
35.411,-126,26.427,3350
35.419,-195,26.433,3457
35.427,-209,26.438,3329
35.434,-117,26.444,3376
35.442,-76,26.45,3254
35.45,-76,26.456,3249
35.458,-85,26.462,3119
35.465,-89,26.468,2876
35.473,-64,26.473,2773
35.481,-18,26.479,2464
35.488,20,26.485,2302
35.496,55,26.49,2092
35.504,62,26.496,1791
35.511,25,26.502,1510
35.519,27,26.508,1207
35.527,82,26.513,949
35.534,112,26.519,578
35.542,87,26.525,454
35.55,13,26.53,97
35.558,-29,26.536,83
35.565,6,26.542,-246
35.573,29,26.547,-475
35.581,-9,26.553,-571
35.588,-66,26.559,-829
35.596,-145,26.564,-705
35.604,-216,26.57,-854
35.611,-234,26.576,-915
35.619,-228,26.581,-924
35.627,-216,26.587,-1023
35.634,-216,26.593,-905
35.642,-253,26.598,-863
35.65,-280,26.604,-805
35.658,-251,26.61,-559
35.665,-198,26.615,-470
35.673,-188,26.621,-172
35.681,-234,26.627,-46
35.688,-283,26.633,210
35.696,-264,26.638,296
35.704,-216,26.644,488
35.711,-184,26.65,730
35.719,-161,26.655,855
35.727,-142,26.661,1206
35.734,-147,26.667,1521
35.742,-149,26.672,1791
35.75,-147,26.678,2021
35.758,-161,26.684,2399
35.765,-168,26.689,2706
35.773,-152,26.695,3078
35.781,-124,26.702,3425
35.788,-85,26.708,3661
35.796,-46,26.713,3949
35.804,4,26.719,4188
35.811,25,26.725,4532
35.819,-9,26.73,4943
35.827,-27,26.736,5217
35.834,-13,26.742,5529
35.842,2,26.747,5844
35.85,20,26.753,6063
35.858,-2,26.759,6277
35.865,-69,26.764,6487
35.873,-119,26.77,6677
35.881,-145,26.776,7048
35.888,-36,26.781,7138
35.896,377,26.787,7408
35.904,702,26.793,7530
35.912,177,26.798,7515
35.919,-732,26.804,7877
35.927,-707,26.81,7999
35.935,-112,26.816,8152
35.942,-25,26.821,8219
35.95,-163,26.827,8339
35.958,-122,26.833,8529
35.965,-87,26.838,8646
35.973,-101,26.844,8788
35.981,-50,26.85,8831
35.988,9,26.855,8946
35.996,-18,26.861,8957
36.004,-52,26.867,9029
36.012,-23,26.872,9111
36.019,20,26.878,9201
36.027,55,26.884,9255
36.035,64,26.889,9233
36.042,16,26.895,9380
36.05,-23,26.901,9466
36.058,11,26.906,9613
36.065,32,26.912,9818
36.073,-6,26.918,9616
36.081,-6,26.923,9642
36.088,18,26.929,9589
36.096,25,26.935,9438
36.104,55,26.942,9315
36.112,76,26.948,9085
36.119,82,26.953,8817
36.127,105,26.959,8537
36.135,82,26.965,8324
36.142,57,26.97,7871
36.15,57,26.976,7590
36.158,29,26.982,7107
36.165,20,26.987,6822
36.173,13,26.993,6450
36.181,-13,26.999,6029
36.188,6,27.004,5660
36.196,29,27.01,5369
36.204,29,27.016,4959
36.212,39,27.021,4813
36.219,6,27.027,4429
36.227,-69,27.033,4191
36.235,-115,27.039,4030
36.242,-147,27.044,3819
36.25,-234,27.05,3546
36.258,-308,27.056,3440
36.265,-292,27.061,3401
36.273,-278,27.067,3247
36.281,-274,27.073,3207
36.288,-234,27.078,3193
36.296,-232,27.084,3210
36.304,-225,27.09,3115
36.312,-195,27.095,3165
36.319,-177,27.101,3210
36.327,-133,27.107,3171
36.335,-99,27.112,3226
36.342,-87,27.118,3271
36.35,-112,27.124,3291
36.358,-202,27.129,3158
36.365,-244,27.135,3229
36.373,-198,27.141,3258
36.381,-168,27.146,3207
36.388,-221,27.152,3302
36.396,-320,27.158,3104
36.404,-331,27.164,3153
36.412,-280,27.169,3043
36.419,-193,27.175,3040
36.427,117,27.181,2898
36.435,571,27.186,2954
36.442,582,27.192,2974
36.45,-200,27.198,2725
36.458,-783,27.203,2721
36.466,-350,27.209,2573
36.473,62,27.216,2496
36.481,-66,27.222,2294
36.489,-96,27.227,2177
36.496,-25,27.233,2110
36.504,-39,27.239,1905
36.512,-9,27.244,1931
36.519,46,27.25,1705
36.527,41,27.256,1708
36.535,-73,27.261,1541
36.542,-181,27.267,1329
36.55,-145,27.273,1304
36.558,-66,27.278,1196
36.566,-32,27.284,1152
36.573,-18,27.29,1040
36.581,-2,27.295,1128
36.589,39,27.301,946
36.596,76,27.307,974
36.604,126,27.312,815
36.612,165,27.318,916
36.619,161,27.324,947
36.627,165,27.329,936
36.635,184,27.335,1074
36.642,225,27.341,1176
36.65,283,27.347,1314
36.658,294,27.352,1325
36.666,278,27.358,1346
36.673,246,27.364,1482
36.681,223,27.369,1584
36.689,237,27.375,1722
36.696,234,27.381,1689
36.704,218,27.386,1774
36.712,140,27.392,1586
36.719,-13,27.398,1657
36.727,-78,27.403,1609
36.735,-73,27.409,1507
36.742,-103,27.415,1469
36.75,-124,27.42,1383
36.758,-126,27.426,1226
36.766,-124,27.432,779
36.773,-108,27.437,651
36.781,-69,27.443,484
36.789,-25,27.449,175
36.796,-23,27.454,23
36.804,-34,27.461,-251
36.812,-34,27.467,-610
36.819,-18,27.473,-888
36.827,27,27.478,-1129
36.835,48,27.484,-1467
36.842,55,27.49,-1781
36.85,55,27.495,-1870
36.858,41,27.501,-2209
36.866,85,27.507,-2253
36.873,133,27.512,-2549
36.881,108,27.518,-2693
36.889,0,27.524,-2775
36.896,-170,27.53,-2847
36.904,-248,27.535,-2939
36.912,-230,27.541,-2966
36.919,-223,27.547,-2985
36.927,-198,27.552,-3157
36.935,-216,27.558,-2925
36.942,-327,27.564,-2790
36.95,-340,27.569,-2785
36.958,-55,27.575,-2495
36.966,430,27.581,-2559
36.973,538,27.586,-2252
36.981,-177,27.592,-2240
36.989,-884,27.598,-1963
36.996,-631,27.603,-1707
37.004,-154,27.609,-1479
37.012,-179,27.615,-1493
37.02,-225,27.62,-1252
37.027,-117,27.626,-1145
37.035,-142,27.632,-924
37.043,-165,27.637,-733
37.05,-73,27.643,-751
37.058,-34,27.649,-568
37.066,-36,27.655,-339
37.073,-110,27.66,-258
37.081,-257,27.666,-100
37.089,-269,27.672,92
37.097,-172,27.677,197
37.104,-115,27.683,488
37.112,-85,27.689,605
37.12,-62,27.694,722
37.127,-50,27.701,894
37.135,-29,27.707,959
37.143,25,27.713,1236
37.15,80,27.718,1277
37.158,96,27.724,1416
37.166,108,27.73,1305
37.173,108,27.735,1285
37.181,128,27.741,1349
37.189,191,27.747,1467
37.197,209,27.752,1539
37.204,198,27.758,1562
37.212,165,27.764,1603
37.22,101,27.769,1643
37.227,62,27.775,1625
37.235,20,27.781,1779
37.243,-9,27.786,1827
37.25,-23,27.792,1972
37.258,-112,27.798,2134
37.266,-172,27.803,2222
37.273,-128,27.809,2271
37.281,-71,27.815,2529
37.289,-36,27.82,2455
37.297,-23,27.826,2648
37.304,-18,27.832,2794
37.312,-16,27.838,2882
37.32,2,27.843,3182
37.327,55,27.849,3180
37.335,82,27.855,3311
37.343,78,27.86,3481
37.35,39,27.866,3639
37.358,-18,27.872,3782
37.366,9,27.877,3868
37.373,62,27.883,3862
37.381,73,27.889,3907
37.389,92,27.894,4086
37.397,50,27.9,4137
37.404,-57,27.906,4164
37.412,-124,27.911,4045
37.42,-115,27.917,3808
37.427,-105,27.923,3636
37.435,-168,27.928,3213
37.443,-225,27.934,3154
37.45,-204,27.941,2670
37.458,-172,27.947,2263
37.466,-154,27.952,1860
37.473,-128,27.958,1348
37.481,57,27.964,804
37.489,472,27.969,420
37.497,584,27.975,-3
37.504,-73,27.981,-550
37.512,-734,27.986,-863
37.52,-518,27.992,-1498
37.527,-131,27.998,-1928
37.535,-241,28.003,-2367
37.543,-331,28.009,-2864
37.55,-218,28.015,-3297
37.558,-202,28.021,-3693
37.566,-216,28.026,-3865
37.574,-179,28.032,-4282
37.581,-170,28.038,-4593
37.589,-158,28.043,-4830
37.597,-142,28.049,-5091
37.604,-122,28.055,-5173
37.612,-138,28.06,-5471
37.62,-204,28.066,-5569
37.627,-211,28.072,-5661
37.635,-168,28.077,-5847
37.643,-128,28.083,-5914
37.651,-85,28.089,-6033
37.658,-99,28.094,-6036
37.666,-145,28.1,-6096
37.674,-145,28.106,-6142
37.681,-110,28.111,-6163
37.689,-69,28.117,-6091
37.697,-39,28.123,-6171
37.704,-2,28.128,-6211
37.712,18,28.134,-6297
37.72,-16,28.14,-6173
37.727,-64,28.146,-6193
37.735,-94,28.151,-6432
37.743,-85,28.157,-6321
37.751,-82,28.163,-6301
37.758,-105,28.168,-6331
37.766,-87,28.174,-6455
37.774,-80,28.181,-6471
37.781,-96,28.186,-6588
37.789,-82,28.192,-6695
37.797,-128,28.198,-6600
37.804,-179,28.204,-6601
37.812,-142,28.209,-6693
37.82,-105,28.215,-6772
37.827,-78,28.221,-6918
37.835,-48,28.226,-6840
37.843,-36,28.232,-6820
37.851,-25,28.238,-6881
37.858,-2,28.243,-6825
37.866,29,28.249,-6951
37.874,50,28.255,-6970
37.881,73,28.26,-6826
37.889,110,28.266,-6898
37.897,126,28.272,-7095
37.904,119,28.277,-7059
37.912,46,28.283,-7092
37.92,-25,28.289,-7026
37.927,6,28.294,-6935
37.935,20,28.3,-6883
37.943,2,28.306,-6963
37.951,0,28.311,-6873
37.958,-57,28.317,-6784
37.966,-117,28.323,-6597
37.974,-193,28.329,-6582
37.981,-299,28.334,-6531
37.989,-239,28.34,-6566
37.997,64,28.346,-6450
38.004,488,28.351,-6444
38.012,578,28.357,-6341
38.02,-85,28.363,-6307
38.027,-697,28.368,-6239
38.035,-419,28.374,-5916
38.043,-13,28.38,-6007
38.051,-69,28.385,-5909
38.058,-103,28.391,-5843
38.066,2,28.397,-5696
38.074,6,28.402,-5595
38.081,4,28.408,-5541
38.089,76,28.414,-5501
38.097,87,28.421,-5515
38.104,87,28.426,-5543
38.112,99,28.432,-5581
38.12,59,28.438,-5749
38.127,43,28.443,-5875
38.135,25,28.449,-6194
38.143,-29,28.455,-6363
38.151,-57,28.46,-6676
38.158,-112,28.466,-7031
38.166,-147,28.472,-7302
38.174,-101,28.477,-7724
38.182,-71,28.483,-8301
38.189,-73,28.489,-8726
38.197,-103,28.495,-8817
38.205,-154,28.5,-9263
38.212,-191,28.506,-9527
38.22,-204,28.512,-9822
38.228,-177,28.517,-10210
38.235,-163,28.523,-10398
38.243,-177,28.529,-10642
38.251,-181,28.534,-10923
38.258,-184,28.54,-11141
38.266,-161,28.546,-11246
38.274,-152,28.551,-11300
38.282,-165,28.557,-11386
38.289,-149,28.563,-11386
38.297,-128,28.568,-11394
38.305,-96,28.574,-11351
38.312,-62,28.58,-11370
38.32,-62,28.585,-11235
38.328,-62,28.591,-11191
38.335,-99,28.597,-10934
38.343,-142,28.602,-10846
38.351,-101,28.608,-10633
38.358,-46,28.614,-10555
38.366,-18,28.62,-10427
38.374,-9,28.625,-10233
38.382,-6,28.631,-9871
38.389,18,28.637,-9886
38.397,57,28.642,-9667
38.405,78,28.648,-9520
38.412,16,28.654,-9433
38.42,-73,28.659,-9335
38.428,-52,28.666,-9114
38.435,-16,28.672,-8920
38.443,-9,28.678,-8782
38.451,18,28.683,-8657
38.458,4,28.689,-8487
38.466,-50,28.695,-8311
38.474,-71,28.7,-8217
38.482,-34,28.706,-8365
38.489,6,28.712,-7963
38.497,-9,28.717,-8011
38.505,43,28.723,-7807
38.512,280,28.729,-7694
38.52,614,28.734,-7740
38.528,688,28.74,-7611
38.535,76,28.746,-7432
38.543,-557,28.752,-7373
38.551,-356,28.757,-7089
38.558,-23,28.763,-7112
38.566,-94,28.769,-7123
38.574,-105,28.774,-6878
38.582,2,28.78,-6722
38.589,25,28.786,-6741
38.597,11,28.791,-6592
38.605,27,28.797,-6537
38.612,34,28.803,-6439
38.62,48,28.808,-6332
38.628,103,28.814,-6162
38.635,138,28.82,-6017
38.643,145,28.825,-5938
38.651,149,28.831,-5761
38.658,140,28.837,-5536
38.666,168,28.842,-5569
38.674,200,28.848,-5550
38.682,216,28.854,-5323
38.689,228,28.859,-5281
38.697,156,28.865,-5106
38.705,50,28.871,-4909
38.713,2,28.877,-4703
38.72,-18,28.882,-4803
38.728,-18,28.888,-4698
38.736,-80,28.894,-4471
38.743,-200,28.899,-4350
38.751,-239,28.905,-4314
38.759,-214,28.911,-4294
38.766,-200,28.916,-4116
38.774,-209,28.922,-3997
38.782,-232,28.928,-3885
38.789,-255,28.933,-3681
38.797,-264,28.939,-3652
38.805,-218,28.946,-3584
38.813,-163,28.952,-3528
38.82,-147,28.957,-3467
38.828,-131,28.963,-3501
38.836,-145,28.969,-3629
38.843,-152,28.974,-3806
38.851,-117,28.98,-3951
38.859,-94,28.986,-4341
38.866,-64,28.991,-4522
38.874,-96,28.997,-4855
38.882,-186,29.003,-5228
38.889,-165,29.008,-5569
38.897,-96,29.014,-5995
38.905,-78,29.02,-6408
38.913,-110,29.025,-6613
38.92,-200,29.031,-7036
38.928,-221,29.037,-7308
38.936,-161,29.042,-7591
38.943,-119,29.048,-7955
38.951,-119,29.054,-8327
38.959,-168,29.06,-8595
38.966,-193,29.065,-8837
38.974,-181,29.071,-8997
38.982,-152,29.077,-9156
38.989,-89,29.082,-9381
38.997,-52,29.088,-9437
39.005,-46,29.094,-9329
39.013,-46,29.099,-9390
39.02,41,29.105,-9427
39.028,412,29.111,-9427
39.036,822,29.116,-9359
39.043,617,29.122,-9322
39.051,-216,29.128,-9203
39.059,-617,29.133,-8983
39.066,-228,29.139,-8782
39.074,4,29.145,-8630
39.082,-87,29.15,-8597
39.089,-9,29.156,-8423
39.097,73,29.162,-8213
39.105,25,29.167,-7973
39.113,-2,29.173,-7885
39.12,2,29.179,-7620
39.128,36,29.186,-7513
39.136,73,29.192,-7315
39.143,82,29.197,-7133
39.151,85,29.203,-7020
39.159,82,29.209,-6687
39.166,119,29.214,-6696
39.174,168,29.22,-6613
39.182,195,29.226,-6542
39.189,216,29.231,-6381
39.197,181,29.237,-6302
39.205,115,29.243,-6258
39.213,112,29.248,-6095
39.22,154,29.254,-6066
39.228,179,29.26,-5808
39.236,131,29.266,-5767
39.243,64,29.271,-5800
39.251,82,29.277,-5760
39.259,112,29.283,-5640
39.267,110,29.288,-5476
39.274,80,29.294,-5460
39.282,6,29.3,-5492
39.29,-59,29.305,-5300
39.297,-135,29.311,-5323
39.305,-188,29.317,-5294
39.313,-175,29.322,-5209
39.32,-181,29.328,-5158
39.328,-251,29.334,-5065
39.336,-315,29.339,-4915
39.343,-306,29.345,-4827
39.351,-260,29.351,-4646
39.359,-241,29.356,-4513
39.367,-223,29.362,-4469
39.374,-216,29.368,-4262
39.382,-239,29.373,-4282
39.39,-234,29.379,-4095
39.397,-204,29.385,-4035
39.405,-161,29.391,-3923
39.413,-135,29.396,-3876
39.42,-191,29.402,-3722
39.428,-230,29.408,-3475
39.436,-193,29.413,-3504
39.443,-179,29.419,-3294
39.451,-223,29.425,-3177
39.459,-287,29.43,-3077
39.467,-322,29.436,-2875
39.474,-313,29.442,-2826
39.482,-287,29.447,-2708
39.49,-239,29.453,-2490
39.497,-193,29.459,-2409
39.505,-165,29.464,-2147
39.513,-158,29.47,-2149
39.52,-122,29.476,-1975
